code,atr14
1332,22.03
1333,17.75
1414,18.5
1417,48.82
1605,102.64
1719,31.53
1721,134.2
1801,334.38
1802,66.61
1803,73.28
1808,51.8
1812,124.51
1820,92.42
1860,25.56
1878,49.72
1893,47.25
1911,24.71
1925,33.93
1928,52.93
1942,142.46
1944,156.96
1951,37.44
1959,139.44
1963,65.43
1969,106.03
2002,36.01
2127,11.2
2181,7.06
2201,30.9
2206,66.29
2212,86.43
2222,73.34
2229,40.5
2264,25.44
2267,45.84
2269,83.43
2282,43.83
2327,102.48
2331,26.59
2371,45.43
2413,50.43
2432,48.75
2433,33.06
2501,41.29
2502,25.57
2503,49.61
2531,86.86
2579,86.36
2587,70.5
2593,69.5
2607,105.36
2670,46.57
2768,124.09
2784,38.9
2801,36.17
2802,126.57
2809,84.07
2810,66.21
2811,42.21
285A,1030.83
2871,43.06
2875,178.1
2897,57.68
2914,121.29
3003,26.93
3038,90.79
3048,30.57
3064,53.07
3086,56.11
3088,54.79
3092,24.16
3099,36.49
3105,87.54
3107,74.26
3116,37.67
3132,142.85
3197,64.5
3231,12.38
3288,155.79
3289,20.04
3291,38.7
3349,161.36
3360,49.46
3382,33.29
3391,52.32
3397,98.43
3401,32.62
3402,24.49
3405,34.57
3407,32.34
3436,181.68
3549,151.07
3563,190.47
3591,73.91
3626,107.08
3635,34.07
3659,71.85
3697,31.89
3769,210.18
3774,74.08
3861,12.17
3923,33.46
3941,28.3
3994,240.5
4004,904.67
4005,16.18
4021,169.52
4042,42.67
4043,94.98
4045,24.11
4061,83.26
4062,746.39
4063,111.82
4091,124.28
4114,42.19
4118,98.52
4151,41.57
417A,31.32
4182,108.74
4183,56.13
4186,280.5
4188,32.11
4194,286.64
4202,24.01
4203,245.88
4204,39.7
4205,46.71
4206,64.04
4208,61.51
4272,40.96
4307,138.38
4324,72.64
4385,118.64
4401,87.16
4403,45.04
4452,56.29
4502,110.84
4503,48.84
4506,51.75
4507,58.61
4516,56.2
4519,173.21
4523,97.06
4527,64.18
4528,42.0
4536,41.66
4540,56.34
4543,55.16
4544,71.85
4568,71.61
4578,321.07
4587,34.89
4612,25.0
4613,45.92
4626,31.57
4631,113.64
4661,78.8
4665,60.8
4666,53.75
4676,77.96
4680,44.27
4681,30.07
4684,117.36
4689,15.59
4704,202.93
4716,280.29
4732,28.58
4733,165.8
4751,22.88
4755,15.7
4768,69.5
4887,31.21
4901,63.33
4902,23.28
4911,110.5
4912,27.54
4922,116.36
4927,21.18
4967,189.57
4980,107.98
5016,132.23
5019,56.6
5020,36.57
5021,117.22
5076,64.04
5101,181.64
5105,97.14
5108,67.07
5110,37.82
5201,107.71
5214,116.43
5232,49.94
5233,93.86
5301,97.93
5332,137.53
5333,157.31
5334,96.51
5344,2208.84
5393,78.91
5401,13.01
5406,32.32
5411,33.76
5444,222.28
5463,25.05
5471,64.41
5631,270.09
5706,132.7
5711,140.26
5713,350.08
5714,230.0
5801,216.94
5802,91.01
5803,230.28
5830,122.98
5831,94.63
5832,104.5
5838,216.43
5844,128.13
5901,87.31
5929,60.82
5938,19.12
5947,58.82
5991,74.91
6005,66.88
6098,576.42
6113,68.95
6134,254.35
6136,85.57
6141,63.25
6146,2060.61
6178,60.17
6268,130.36
6269,273.21
6273,1961.39
6301,213.08
6302,176.79
6305,120.36
6323,175.29
6326,71.32
6361,157.43
6367,335.04
6368,78.25
6370,144.94
6383,133.71
6417,45.88
6436,48.61
6448,106.54
6457,96.28
6460,98.5
6465,88.5
6471,22.16
6472,8.02
6473,51.0
6479,108.43
6481,199.93
6501,125.94
6503,117.92
6504,396.34
6506,132.43
6525,500.13
6526,104.21
6532,238.36
6544,40.04
6586,94.71
6592,33.54
6632,22.04
6645,158.93
6674,151.34
6701,143.02
6702,111.08
6707,222.64
6723,135.71
6724,76.16
6728,247.36
6752,166.49
6753,23.29
6754,99.58
6758,83.68
6762,109.72
6770,56.82
6806,533.47
6841,95.28
6845,27.34
6849,37.67
6856,676.43
6857,1743.21
6861,1842.15
6869,43.74
6902,27.45
6920,2250.0
6923,64.4
6925,140.29
6951,247.85
6952,62.79
6954,149.0
6963,195.14
6965,66.58
6971,105.35
6976,593.68
6981,407.65
6988,78.95
7003,151.78
7011,108.92
7012,70.49
7013,102.22
7164,36.34
7167,46.12
7180,54.14
7181,40.43
7182,97.0
7186,52.44
7189,139.67
7201,6.82
7202,38.01
7203,50.1
7211,8.66
7240,59.43
7259,41.24
7261,22.76
7267,36.33
7269,41.63
7270,49.01
7272,42.29
7276,48.6
7282,23.02
7309,327.86
7313,21.02
7337,56.66
7453,106.14
7458,33.57
7459,75.92
7476,44.59
7532,19.0
7550,352.98
7616,42.04
7649,30.89
7701,78.69
7729,695.33
7731,58.86
7733,40.71
7735,654.12
7741,573.21
7747,94.93
7751,72.79
7752,34.98
7832,164.38
7846,42.0
7867,117.35
7911,79.98
7912,65.2
7936,106.43
7951,25.88
7956,39.18
7974,233.86
7984,16.3
7988,48.99
8001,54.24
8002,120.29
8012,19.3
8015,192.49
8020,47.82
8031,110.46
8035,477.18
8053,42.76
8056,97.44
8058,104.29
8060,70.57
8086,28.75
8088,43.77
8111,36.36
8113,15.64
8129,81.64
8136,36.95
8174,19.69
8227,66.71
8233,42.07
8242,50.74
8252,35.62
8253,92.29
8267,32.14
8282,40.08
8304,100.64
8306,86.93
8308,76.6
8309,38.73
8316,90.23
8331,76.27
8334,101.98
8341,131.93
8354,198.91
8359,86.45
8377,667.12
8410,5.82
8411,260.81
8418,102.14
8424,72.61
8439,55.17
8473,80.56
8570,36.14
8572,7.56
8591,120.68
8593,19.93
8595,21.49
8601,42.18
8604,43.54
8630,151.03
8697,54.26
8725,119.1
8729,3.37
8750,44.78
8766,20.34
8795,119.15
8801,30.11
8802,78.89
8804,64.36
8830,67.54
8876,50.09
9001,47.48
9003,46.36
9005,23.65
9006,23.1
9007,30.35
9008,16.04
9009,27.16
9020,61.0
9021,48.36
9022,68.45
9023,23.8
9024,91.35
9031,66.9
9041,53.34
9042,81.18
9044,71.74
9045,52.71
9048,27.82
9064,39.88
9065,36.32
9069,40.09
9072,147.0
9076,42.56
9101,168.86
9104,196.81
9107,93.47
9142,59.03
9143,22.45
9147,111.71
9201,52.21
9202,45.44
9301,30.11
9302,59.8
9364,65.25
9401,120.35
9404,69.66
9432,2.7
9433,54.3
9434,4.5
9435,859.34
9449,84.79
9468,79.64
9501,20.49
9502,89.34
9503,84.9
9504,30.53
9505,35.91
9506,39.77
9507,77.0
9508,62.27
9509,30.29
9513,94.21
9531,145.53
9532,146.67
9533,32.46
9602,37.36
9616,69.89
9627,150.86
9684,65.05
9697,128.5
9706,103.38
9735,110.72
9744,57.62
9759,61.86
9766,659.63
9831,13.33
9843,106.19
9861,79.29
9934,54.11
9962,121.03
9983,1597.14
9984,415.24
9987,52.09
9989,50.75
