code,atr14
1332,35.21
1333,25.64
1414,22.5
1417,77.14
1605,116.14
1719,37.29
1721,127.57
1801,465.71
1802,86.64
1803,93.68
1808,59.75
1812,167.86
1820,109.57
1860,31.43
1878,79.0
1893,54.61
1911,33.54
1925,83.71
1928,60.14
1942,253.07
1944,266.21
1951,70.86
1959,301.57
1963,78.36
1969,169.43
2002,49.71
2127,18.42
2181,7.24
2201,59.04
2206,122.79
2212,119.86
2222,96.32
2229,76.82
2264,45.86
2267,78.93
2269,134.0
2282,187.86
2327,100.57
2331,31.18
2371,21.36
2413,114.36
2432,64.57
2433,51.18
2501,86.39
2502,48.5
2503,96.79
2531,63.0
2579,179.14
2587,122.29
2593,78.68
2607,156.64
2670,56.11
2768,165.71
2784,53.04
2801,65.89
2802,240.43
2809,115.64
2810,89.86
2811,62.96
285A,6142.86
2871,73.54
2875,342.86
2897,98.54
2914,196.07
3003,34.71
3038,77.25
3048,36.68
3064,66.36
3086,75.39
3088,66.79
3092,31.32
3099,131.79
3105,145.75
3107,99.93
3116,67.46
3132,210.07
3197,99.0
3231,15.86
3288,208.79
3289,24.39
3291,51.54
3349,219.29
3360,67.46
3382,55.71
3391,63.46
3397,119.36
3401,50.29
3402,47.46
3405,63.89
3407,61.57
3436,338.32
3549,103.43
3563,263.29
3591,116.36
3626,117.57
3635,46.54
3659,152.5
3697,51.3
3769,404.43
3774,90.79
3861,18.95
3923,47.79
3941,47.29
3994,374.64
4004,1270.0
4005,16.04
4021,243.86
4042,71.11
4043,167.29
4045,35.11
4061,198.5
4062,1896.79
4063,179.86
4091,182.43
4114,95.71
4118,156.43
4151,68.32
417A,41.93
4182,281.21
4183,65.46
4186,593.14
4188,43.71
4194,309.71
4202,38.57
4203,429.64
4204,52.25
4205,73.0
4206,116.14
4208,98.29
4272,53.14
4307,224.71
4324,142.71
4385,243.36
4401,180.36
4403,83.79
4452,116.07
4502,142.57
4503,71.25
4506,49.43
4507,77.25
4516,87.79
4519,176.71
4523,159.5
4527,99.93
4528,60.14
4536,60.14
4540,65.79
4543,95.57
4544,108.93
4568,96.29
4578,471.43
4587,42.42
4612,39.36
4613,65.54
4626,77.29
4631,227.79
4661,108.36
4665,104.93
4666,44.68
4676,118.43
4680,74.64
4681,53.71
4684,139.07
4689,16.49
4704,298.29
4716,268.29
4732,35.71
4733,271.0
4751,54.79
4755,31.19
4768,119.14
4887,44.71
4901,141.86
4902,34.73
4911,155.93
4912,52.86
4922,217.5
4927,36.96
4967,114.71
4980,180.93
5016,270.0
5019,37.5
5020,40.75
5021,130.71
5076,92.25
5101,358.57
5105,164.86
5108,121.36
5110,85.68
5201,192.79
5214,250.21
5232,295.71
5233,143.57
5301,81.46
5332,293.43
5333,313.57
5334,316.21
5344,3822.14
5393,142.93
5401,19.16
5406,54.89
5411,53.5
5444,449.29
5463,50.89
5471,106.21
5631,298.0
5706,2877.14
5711,274.64
5713,567.14
5714,361.64
5801,395.32
5802,175.79
5803,474.14
5830,146.93
5831,112.29
5832,110.43
5838,261.64
5844,135.79
5901,112.36
5929,126.21
5938,41.39
5947,82.5
5991,167.86
6005,90.5
6098,691.43
6113,138.43
6134,538.57
6136,152.21
6141,193.36
6146,3904.29
6178,62.46
6268,231.57
6269,542.71
6273,3823.57
6301,237.0
6302,257.43
6305,184.21
6323,296.93
6326,102.82
6361,346.71
6367,616.79
6368,855.36
6370,346.57
6383,219.93
6417,53.04
6436,74.64
6448,149.86
6457,138.57
6460,108.46
6465,150.0
6471,42.43
6472,15.24
6473,78.46
6479,174.93
6481,446.29
6501,181.0
6503,272.0
6504,844.29
6506,234.29
6525,751.14
6526,117.39
6532,302.43
6544,56.25
6586,178.86
6592,44.25
6632,48.54
6645,360.21
6674,322.43
6701,223.86
6702,143.29
6707,467.93
6723,265.86
6724,96.79
6728,524.57
6752,257.36
6753,26.02
6754,197.5
6758,138.71
6762,160.43
6770,74.36
6806,1045.36
6841,257.21
6845,52.18
6849,57.5
6856,1259.64
6857,2499.29
6861,2840.0
6869,76.39
6902,57.29
6920,3160.0
6923,95.43
6925,226.21
6951,455.5
6952,121.68
6954,358.29
6963,277.86
6965,129.18
6971,147.5
6976,1047.43
6981,648.14
6988,107.71
7003,255.43
7011,175.79
7012,124.14
7013,141.71
7164,50.57
7167,53.64
7180,53.68
7181,58.07
7182,99.57
7186,56.29
7189,158.64
7201,11.11
7202,78.82
7203,81.39
7211,10.97
7240,62.54
7259,74.46
7261,38.89
7267,55.21
7269,77.43
7270,89.54
7272,101.07
7276,65.89
7282,201.43
7309,587.86
7313,28.0
7337,65.86
7453,139.86
7458,41.14
7459,75.61
7476,66.36
7532,30.69
7550,377.5
7616,54.89
7649,81.18
7701,106.64
7729,1064.64
7731,79.32
7733,73.25
7735,822.14
7741,826.07
7747,127.07
7751,94.86
7752,47.82
7832,234.71
7846,52.18
7867,132.57
7911,225.43
7912,92.14
7936,226.14
7951,44.25
7956,55.14
7974,336.0
7984,18.57
7988,157.07
8001,54.64
8002,160.79
8012,39.18
8015,266.5
8020,67.21
8031,129.21
8035,3350.71
8053,59.54
8056,191.79
8058,132.0
8060,68.43
8086,39.89
8088,69.43
8111,71.61
8113,30.37
8129,133.86
8136,83.82
8174,57.36
8227,78.56
8233,58.25
8242,82.89
8252,62.18
8253,117.57
8267,39.39
8282,53.46
8304,91.64
8306,101.86
8308,81.14
8309,44.04
8316,192.0
8331,79.21
8334,77.21
8341,127.21
8354,235.64
8359,88.14
8377,321.07
8410,9.51
8411,282.86
8418,95.57
8424,85.71
8439,66.71
8473,94.93
8570,33.75
8572,8.15
8591,164.79
8593,31.93
8595,27.68
8601,44.96
8604,42.61
8630,172.79
8697,66.54
8725,122.36
8729,3.29
8750,49.5
8766,192.71
8795,134.43
8801,36.36
8802,105.14
8804,84.71
8830,81.93
8876,50.39
9001,69.07
9003,72.82
9005,33.39
9006,29.61
9007,40.0
9008,17.7
9009,31.57
9020,96.5
9021,73.86
9022,103.57
9023,26.68
9024,154.79
9031,74.14
9041,79.5
9042,125.5
9044,78.57
9045,67.43
9048,37.57
9064,63.32
9065,224.93
9069,49.43
9072,201.5
9076,73.39
9101,178.93
9104,194.43
9107,89.5
9142,71.0
9143,45.0
9147,169.5
9201,58.21
9202,61.29
9301,41.57
9302,105.43
9364,99.79
9401,156.29
9404,83.29
9432,3.27
9433,84.25
9434,5.61
9435,984.29
9449,153.93
9468,99.07
9501,21.57
9502,85.86
9503,55.86
9504,20.38
9505,26.01
9506,30.07
9507,50.46
9508,51.39
9509,27.43
9513,87.93
9531,142.14
9532,133.79
9533,26.75
9602,50.93
9616,115.79
9627,179.71
9684,118.71
9697,161.71
9706,156.07
9735,196.64
9744,56.5
9759,77.29
9766,888.21
9831,22.7
9843,120.21
9861,82.43
9934,78.25
9962,182.07
9983,1892.14
9984,390.93
9987,130.36
9989,72.79
