code,atr14
1332,29.32
1333,21.61
1414,19.11
1417,73.14
1605,110.36
1719,33.07
1721,114.79
1801,417.14
1802,75.68
1803,57.64
1808,51.36
1812,147.14
1820,99.21
1860,30.46
1878,55.14
1893,48.39
1911,31.25
1925,65.79
1928,46.93
1942,180.86
1944,210.93
1951,64.04
1959,188.29
1963,71.71
1969,155.71
2002,38.5
2127,11.86
2181,6.16
2201,46.04
2206,104.07
2212,96.57
2222,82.5
2229,53.79
2264,38.39
2267,63.86
2269,120.5
2282,129.43
2327,81.93
2331,23.61
2371,25.0
2413,103.89
2432,58.64
2433,49.57
2501,69.71
2502,39.64
2503,83.75
2531,62.0
2579,114.5
2587,96.36
2593,62.71
2607,146.36
2670,47.86
2768,146.36
2784,42.25
2801,55.75
2802,220.29
2809,90.29
2810,55.86
2811,43.89
285A,5093.57
2871,66.36
2875,227.14
2897,80.29
2914,143.43
3003,25.43
3038,60.25
3048,29.57
3064,58.71
3086,66.46
3088,54.46
3092,24.54
3099,120.79
3105,129.57
3107,96.93
3116,44.04
3132,174.0
3197,86.0
3231,10.99
3288,189.93
3289,20.64
3291,43.93
3349,177.21
3360,55.93
3382,40.46
3391,49.96
3397,98.07
3401,44.46
3402,44.14
3405,57.86
3407,37.54
3436,306.43
3549,99.43
3563,251.43
3591,106.29
3626,95.64
3635,40.61
3659,143.68
3697,47.03
3769,411.21
3774,94.43
3861,16.6
3923,46.46
3941,44.43
3994,357.14
4004,1089.64
4005,15.99
4021,254.14
4042,49.57
4043,142.21
4045,27.11
4061,173.14
4062,1697.5
4063,147.57
4091,156.29
4114,92.18
4118,151.0
4151,53.96
417A,34.14
4182,219.64
4183,62.43
4186,468.79
4188,31.86
4194,273.86
4202,29.0
4203,303.71
4204,40.21
4205,57.93
4206,90.71
4208,95.86
4272,42.43
4307,165.36
4324,133.93
4385,242.29
4401,170.29
4403,80.32
4452,105.57
4502,109.07
4503,64.96
4506,47.86
4507,60.29
4516,77.71
4519,163.07
4523,131.21
4527,100.5
4528,47.86
4536,58.36
4540,50.5
4543,92.29
4544,99.57
4568,81.36
4578,388.93
4587,47.02
4612,35.25
4613,60.0
4626,68.5
4631,223.93
4661,79.21
4665,94.21
4666,32.89
4676,107.64
4680,74.5
4681,46.0
4684,111.07
4689,14.97
4704,263.57
4716,244.86
4732,30.25
4733,218.86
4751,50.18
4755,30.2
4768,92.14
4887,40.29
4901,134.14
4902,26.07
4911,134.0
4912,54.32
4922,202.57
4927,32.25
4967,93.0
4980,164.39
5016,221.07
5019,37.61
5020,37.54
5021,119.36
5076,88.18
5101,349.14
5105,154.43
5108,108.0
5110,79.14
5201,144.64
5214,163.71
5232,237.29
5233,133.36
5301,82.5
5332,194.0
5333,236.5
5334,256.36
5344,3225.0
5393,124.0
5401,18.09
5406,49.18
5411,47.18
5444,352.14
5463,50.39
5471,92.21
5631,268.86
5706,2473.93
5711,307.0
5713,633.86
5714,410.14
5801,366.5
5802,137.32
5803,452.36
5830,133.57
5831,99.57
5832,90.57
5838,240.64
5844,125.0
5901,109.07
5929,78.57
5938,25.89
5947,67.29
5991,128.79
6005,92.79
6098,717.14
6113,116.25
6134,374.14
6136,137.57
6141,151.86
6146,3132.14
6178,54.29
6268,176.0
6269,543.64
6273,3412.86
6301,206.07
6302,233.71
6305,189.0
6323,231.43
6326,88.86
6361,271.71
6367,565.0
6368,673.57
6370,278.0
6383,178.93
6417,47.82
6436,60.86
6448,146.57
6457,135.07
6460,95.89
6465,125.21
6471,28.82
6472,12.04
6473,57.0
6479,149.43
6481,369.86
6501,152.64
6503,192.36
6504,630.71
6506,191.0
6525,635.14
6526,93.32
6532,273.57
6544,52.86
6586,106.43
6592,44.79
6632,31.71
6645,332.57
6674,273.29
6701,176.29
6702,110.64
6707,418.29
6723,177.57
6724,88.86
6728,468.71
6752,194.5
6753,25.9
6754,163.86
6758,109.14
6762,112.96
6770,66.54
6806,819.64
6841,214.07
6845,49.61
6849,53.54
6856,1018.57
6857,2001.43
6861,2346.43
6869,75.29
6902,35.75
6920,2448.57
6923,76.0
6925,200.5
6951,402.29
6952,100.61
6954,215.43
6963,249.57
6965,113.64
6971,113.86
6976,893.29
6981,502.57
6988,83.64
7003,206.57
7011,143.36
7012,102.25
7013,128.07
7164,37.86
7167,50.79
7180,48.14
7181,51.86
7182,85.43
7186,49.54
7189,144.86
7201,10.48
7202,49.68
7203,63.93
7211,9.64
7240,50.43
7259,49.32
7261,33.68
7267,52.61
7269,64.89
7270,75.71
7272,87.75
7276,50.0
7282,141.0
7309,512.5
7313,22.46
7337,55.54
7453,127.43
7458,35.86
7459,60.07
7476,46.46
7532,26.85
7550,358.21
7616,43.39
7649,65.39
7701,98.79
7729,932.5
7731,71.04
7733,71.11
7735,636.79
7741,682.86
7747,143.79
7751,76.93
7752,40.75
7832,228.0
7846,52.43
7867,113.86
7911,242.64
7912,90.39
7936,246.36
7951,40.14
7956,53.21
7974,316.71
7984,14.14
7988,102.5
8001,51.29
8002,119.93
8012,36.43
8015,252.5
8020,59.96
8031,112.21
8035,2527.14
8053,50.04
8056,171.36
8058,105.71
8060,64.93
8086,37.96
8088,63.43
8111,64.18
8113,26.01
8129,109.57
8136,78.89
8174,42.68
8227,75.78
8233,59.11
8242,67.89
8252,48.29
8253,100.64
8267,31.61
8282,46.36
8304,89.79
8306,86.57
8308,74.54
8309,36.14
8316,155.93
8331,71.68
8334,72.5
8341,112.93
8354,208.36
8359,79.68
8377,281.57
8410,8.52
8411,229.43
8418,83.29
8424,62.21
8439,50.57
8473,84.32
8570,36.71
8572,6.56
8591,139.71
8593,24.32
8595,25.29
8601,36.89
8604,31.36
8630,152.43
8697,49.57
8725,123.21
8729,3.28
8750,43.43
8766,157.14
8795,122.79
8801,30.96
8802,83.93
8804,71.79
8830,72.29
8876,42.68
9001,50.29
9003,43.93
9005,25.93
9006,20.39
9007,33.46
9008,13.16
9009,25.46
9020,72.79
9021,59.96
9022,77.36
9023,19.79
9024,112.21
9031,62.21
9041,63.86
9042,87.29
9044,52.64
9045,50.29
9048,28.32
9064,48.93
9065,181.43
9069,46.86
9072,180.64
9076,56.82
9101,193.14
9104,206.64
9107,106.93
9142,54.21
9143,37.93
9147,176.79
9201,49.14
9202,47.64
9301,28.43
9302,93.36
9364,77.86
9401,130.29
9404,64.79
9432,3.09
9433,73.46
9434,4.9
9435,969.29
9449,135.07
9468,95.07
9501,20.54
9502,63.68
9503,64.04
9504,17.72
9505,22.69
9506,30.14
9507,42.68
9508,49.14
9509,26.0
9513,71.57
9531,109.64
9532,107.5
9533,21.04
9602,40.75
9616,103.79
9627,140.64
9684,111.43
9697,144.57
9706,152.21
9735,155.36
9744,42.43
9759,59.32
9766,720.0
9831,20.47
9843,112.07
9861,60.71
9934,59.82
9962,126.21
9983,1710.71
9984,331.57
9987,113.21
9989,61.43
