code,atr14
1332,21.25
1333,15.54
1414,18.39
1417,45.73
1605,88.21
1719,28.81
1721,145.44
1801,323.12
1802,59.44
1803,58.91
1808,45.3
1812,105.98
1820,91.14
1860,27.1
1878,49.4
1893,37.78
1911,20.86
1925,29.76
1928,43.14
1942,139.3
1944,148.59
1951,36.34
1959,132.65
1963,57.07
1969,105.4
2002,34.82
2127,9.71
2181,5.33
2201,29.98
2206,65.29
2212,77.21
2222,79.79
2229,40.04
2264,22.41
2267,40.02
2269,78.83
2282,40.89
2327,102.31
2331,23.23
2371,35.86
2413,49.57
2432,47.25
2433,27.59
2501,49.96
2502,27.82
2503,54.89
2531,100.5
2579,80.0
2587,74.86
2593,67.64
2607,102.14
2670,58.32
2768,117.96
2784,36.86
2801,43.4
2802,128.56
2809,90.0
2810,70.92
2811,39.57
285A,874.29
2871,38.44
2875,206.4
2897,49.64
2914,131.36
3003,23.14
3038,60.11
3048,30.57
3064,55.71
3086,59.39
3088,43.6
3092,23.47
3099,39.98
3105,82.96
3107,68.62
3116,30.46
3132,149.21
3197,60.36
3231,11.58
3288,135.71
3289,18.9
3291,36.54
3349,143.29
3360,41.96
3382,32.89
3391,59.61
3397,94.57
3401,31.01
3402,22.77
3405,34.79
3407,33.51
3436,175.68
3549,168.14
3563,172.82
3591,76.19
3626,93.76
3635,32.82
3659,72.65
3697,29.94
3769,221.57
3774,70.93
3861,11.56
3923,31.86
3941,29.08
3994,240.07
4004,855.39
4005,15.05
4021,195.76
4042,41.1
4043,93.08
4045,23.14
4061,75.34
4062,693.33
4063,121.02
4091,127.98
4114,43.93
4118,96.16
4151,40.64
417A,29.35
4182,105.46
4183,55.63
4186,287.07
4188,28.93
4194,227.79
4202,26.97
4203,265.03
4204,36.44
4205,47.77
4206,64.21
4208,60.0
4272,39.25
4307,137.28
4324,68.36
4385,100.0
4401,90.43
4403,43.0
4452,49.36
4502,102.73
4503,47.86
4506,48.43
4507,69.93
4516,60.59
4519,174.43
4523,102.85
4527,59.3
4528,41.57
4536,40.45
4540,52.28
4543,59.94
4544,66.8
4568,69.18
4578,266.07
4587,35.61
4612,30.39
4613,46.39
4626,43.36
4631,103.64
4661,70.28
4665,60.58
4666,60.21
4676,93.97
4680,42.34
4681,28.08
4684,110.09
4689,14.31
4704,222.79
4716,255.5
4732,25.46
4733,173.47
4751,21.92
4755,16.94
4768,76.71
4887,30.28
4901,68.74
4902,22.62
4911,110.79
4912,24.21
4922,116.21
4927,21.46
4967,205.21
4980,123.62
5016,136.24
5019,50.75
5020,31.63
5021,107.35
5076,87.92
5101,186.64
5105,77.07
5108,67.0
5110,35.93
5201,106.0
5214,121.0
5232,52.01
5233,95.04
5301,85.89
5332,153.57
5333,164.19
5334,105.08
5344,2238.23
5393,83.43
5401,13.08
5406,31.77
5411,32.13
5444,233.18
5463,27.73
5471,68.24
5631,229.4
5706,139.03
5711,126.99
5713,320.95
5714,188.86
5801,233.24
5802,92.34
5803,225.41
5830,123.84
5831,89.13
5832,100.91
5838,204.71
5844,123.26
5901,90.24
5929,56.46
5938,19.64
5947,52.23
5991,112.51
6005,60.33
6098,518.02
6113,63.72
6134,281.51
6136,82.36
6141,64.36
6146,2421.49
6178,58.22
6268,128.21
6269,218.71
6273,2132.82
6301,256.53
6302,168.57
6305,131.64
6323,209.57
6326,81.57
6361,155.71
6367,351.06
6368,87.21
6370,141.27
6383,122.71
6417,42.55
6436,49.83
6448,98.78
6457,82.52
6460,81.57
6465,80.43
6471,22.62
6472,8.32
6473,51.48
6479,119.61
6481,202.0
6501,118.92
6503,118.05
6504,466.8
6506,127.71
6525,442.08
6526,105.21
6532,234.0
6544,34.25
6586,94.32
6592,31.61
6632,22.83
6645,158.71
6674,139.63
6701,122.65
6702,94.46
6707,210.36
6723,160.14
6724,73.78
6728,253.29
6752,163.74
6753,17.56
6754,107.06
6758,77.49
6762,150.09
6770,57.45
6806,547.35
6841,99.1
6845,28.08
6849,34.54
6856,745.36
6857,1707.86
6861,1717.5
6869,43.38
6902,25.09
6920,2336.43
6923,61.68
6925,156.43
6951,261.32
6952,62.36
6954,150.86
6963,185.71
6965,76.31
6971,106.12
6976,714.14
6981,388.37
6988,83.42
7003,142.01
7011,103.23
7012,61.07
7013,85.9
7164,36.59
7167,46.13
7180,54.11
7181,38.32
7182,99.36
7186,49.33
7189,132.85
7201,6.55
7202,36.56
7203,46.56
7211,9.16
7240,59.43
7259,39.03
7261,19.16
7267,34.98
7269,41.63
7270,41.95
7272,40.39
7276,47.8
7282,26.26
7309,288.21
7313,18.53
7337,55.77
7453,102.5
7458,33.02
7459,74.18
7476,38.51
7532,15.81
7550,355.26
7616,48.71
7649,28.07
7701,86.69
7729,739.48
7731,62.23
7733,43.93
7735,664.03
7741,601.79
7747,91.29
7751,76.21
7752,36.44
7832,139.36
7846,38.61
7867,108.42
7911,80.14
7912,67.07
7936,112.07
7951,25.22
7956,38.82
7974,192.36
7984,14.71
7988,50.9
8001,49.97
8002,105.3
8012,23.57
8015,169.04
8020,43.82
8031,104.34
8035,497.69
8053,40.72
8056,79.76
8058,98.88
8060,60.14
8086,30.67
8088,39.51
8111,34.7
8113,14.96
8129,85.32
8136,35.87
8174,18.84
8227,62.86
8233,44.93
8242,51.07
8252,36.49
8253,96.93
8267,27.04
8282,44.13
8304,88.86
8306,86.35
8308,75.85
8309,39.03
8316,87.15
8331,78.02
8334,102.09
8341,118.29
8354,211.97
8359,84.09
8377,38.14
8410,5.72
8411,266.71
8418,107.04
8424,70.34
8439,52.34
8473,76.42
8570,35.61
8572,7.97
8591,117.63
8593,19.23
8595,22.92
8601,39.14
8604,38.04
8630,134.76
8697,52.28
8725,113.17
8729,3.05
8750,45.28
8766,21.3
8795,113.14
8801,28.3
8802,69.58
8804,59.14
8830,62.97
8876,49.92
9001,43.22
9003,46.49
9005,21.21
9006,23.28
9007,27.74
9008,15.29
9009,28.63
9020,55.13
9021,42.87
9022,62.85
9023,24.35
9024,87.35
9031,61.79
9041,53.52
9042,96.13
9044,75.37
9045,49.86
9048,26.93
9064,39.93
9065,32.18
9069,43.87
9072,193.52
9076,40.74
9101,160.87
9104,188.39
9107,86.05
9142,53.92
9143,22.81
9147,108.0
9201,52.14
9202,42.23
9301,28.52
9302,54.25
9364,59.84
9401,127.37
9404,65.18
9432,2.56
9433,45.68
9434,3.83
9435,874.18
9449,84.21
9468,87.36
9501,17.74
9502,74.35
9503,73.34
9504,27.36
9505,35.47
9506,35.47
9507,66.18
9508,61.58
9509,27.82
9513,88.07
9531,145.5
9532,132.27
9533,31.54
9602,31.61
9616,69.69
9627,104.43
9684,54.33
9697,125.19
9706,112.7
9735,102.23
9744,53.54
9759,57.25
9766,619.61
9831,13.41
9843,105.7
9861,81.86
9934,55.19
9962,121.67
9983,1962.14
9984,336.33
9987,54.87
9989,49.08
