code,atr14
1332,22.07
1333,17.75
1414,18.5
1417,48.82
1605,102.64
1719,32.28
1721,135.2
1801,337.6
1802,66.61
1803,73.53
1808,53.09
1812,125.15
1820,93.27
1860,26.1
1878,49.72
1893,48.14
1911,25.0
1925,34.72
1928,54.0
1942,142.46
1944,156.96
1951,37.44
1959,139.72
1963,65.68
1969,106.03
2002,36.01
2127,11.34
2181,7.06
2201,31.15
2206,66.29
2212,86.43
2222,73.34
2229,41.5
2264,25.62
2267,45.84
2269,85.15
2282,43.83
2327,102.48
2331,26.81
2371,45.43
2413,50.43
2432,49.07
2433,33.06
2501,42.46
2502,25.57
2503,49.61
2531,91.5
2579,86.36
2587,70.5
2593,69.5
2607,105.36
2670,46.57
2768,124.8
2784,38.97
2801,36.17
2802,129.21
2809,86.64
2810,68.14
2811,42.54
285A,1034.4
2871,43.59
2875,178.1
2897,57.68
2914,121.79
3003,27.04
3038,90.79
3048,30.68
3064,53.07
3086,57.36
3088,54.79
3092,24.16
3099,36.49
3105,87.54
3107,74.26
3116,37.78
3132,144.21
3197,65.0
3231,12.72
3288,155.93
3289,20.29
3291,39.42
3349,161.36
3360,49.46
3382,33.29
3391,52.64
3397,99.79
3401,32.62
3402,24.49
3405,34.68
3407,32.34
3436,183.89
3549,152.29
3563,190.47
3591,74.76
3626,107.08
3635,34.07
3659,71.85
3697,31.89
3769,211.61
3774,74.44
3861,12.29
3923,33.46
3941,28.44
3994,243.57
4004,941.82
4005,16.18
4021,169.52
4042,42.67
4043,94.98
4045,24.32
4061,83.26
4062,753.17
4063,111.82
4091,124.28
4114,42.41
4118,98.81
4151,41.57
417A,31.32
4182,109.81
4183,56.13
4186,280.5
4188,32.11
4194,286.64
4202,24.08
4203,249.88
4204,39.7
4205,46.71
4206,64.4
4208,61.51
4272,41.03
4307,138.38
4324,72.64
4385,119.5
4401,87.8
4403,45.04
4452,56.29
4502,110.84
4503,48.88
4506,51.75
4507,58.61
4516,56.56
4519,173.21
4523,98.56
4527,64.18
4528,42.6
4536,41.66
4540,56.34
4543,55.16
4544,71.85
4568,71.72
4578,321.07
4587,35.29
4612,25.25
4613,47.28
4626,31.57
4631,114.14
4661,79.22
4665,60.8
4666,54.04
4676,78.81
4680,44.41
4681,30.07
4684,117.36
4689,15.64
4704,202.93
4716,280.29
4732,28.58
4733,169.16
4751,22.99
4755,15.96
4768,69.5
4887,31.21
4901,63.97
4902,23.55
4911,113.29
4912,27.54
4922,116.36
4927,21.64
4967,194.07
4980,107.98
5016,132.23
5019,56.6
5020,36.57
5021,119.43
5076,64.82
5101,181.64
5105,97.36
5108,67.07
5110,37.96
5201,107.71
5214,116.43
5232,50.65
5233,97.07
5301,97.93
5332,138.95
5333,157.31
5334,98.37
5344,2208.84
5393,78.91
5401,13.14
5406,32.32
5411,33.76
5444,222.28
5463,25.66
5471,64.51
5631,270.09
5706,132.7
5711,140.26
5713,350.08
5714,230.0
5801,217.44
5802,91.01
5803,230.28
5830,124.33
5831,94.85
5832,105.72
5838,216.86
5844,129.28
5901,87.67
5929,61.82
5938,19.12
5947,59.47
5991,74.91
6005,66.88
6098,576.42
6113,68.95
6134,254.35
6136,85.57
6141,63.43
6146,2060.61
6178,60.21
6268,130.43
6269,275.5
6273,1961.39
6301,213.08
6302,176.79
6305,122.08
6323,175.29
6326,71.32
6361,158.21
6367,335.04
6368,78.25
6370,144.94
6383,134.71
6417,45.88
6436,48.68
6448,106.54
6457,96.85
6460,98.5
6465,88.5
6471,22.16
6472,8.02
6473,51.03
6479,109.22
6481,199.93
6501,125.94
6503,117.92
6504,403.49
6506,134.29
6525,500.13
6526,105.32
6532,238.57
6544,40.04
6586,94.71
6592,33.54
6632,22.15
6645,160.29
6674,151.34
6701,143.02
6702,111.08
6707,222.64
6723,135.71
6724,76.16
6728,250.0
6752,167.99
6753,23.31
6754,99.58
6758,83.68
6762,110.08
6770,57.04
6806,533.47
6841,95.28
6845,27.41
6849,37.67
6856,676.43
6857,1743.21
6861,1842.15
6869,43.85
6902,27.45
6920,2250.0
6923,64.4
6925,140.36
6951,247.85
6952,62.79
6954,149.0
6963,202.5
6965,66.61
6971,105.35
6976,595.11
6981,407.65
6988,78.95
7003,153.63
7011,108.99
7012,70.49
7013,102.22
7164,37.05
7167,46.76
7180,54.5
7181,41.21
7182,97.0
7186,53.58
7189,142.74
7201,6.89
7202,38.08
7203,50.1
7211,8.86
7240,59.43
7259,41.24
7261,22.79
7267,36.33
7269,41.74
7270,49.33
7272,42.39
7276,48.63
7282,23.38
7309,331.07
7313,21.02
7337,57.44
7453,108.07
7458,33.93
7459,75.92
7476,44.66
7532,19.19
7550,352.98
7616,42.04
7649,30.89
7701,79.19
7729,699.61
7731,60.61
7733,40.71
7735,654.12
7741,573.21
7747,94.93
7751,74.43
7752,35.33
7832,164.59
7846,42.0
7867,117.35
7911,79.98
7912,65.2
7936,109.36
7951,25.95
7956,39.18
7974,234.79
7984,16.33
7988,49.1
8001,54.49
8002,120.29
8012,19.3
8015,192.49
8020,47.85
8031,110.46
8035,481.83
8053,42.76
8056,97.44
8058,104.29
8060,70.57
8086,29.0
8088,43.81
8111,36.36
8113,15.64
8129,84.71
8136,36.95
8174,19.69
8227,66.86
8233,42.14
8242,50.95
8252,36.05
8253,97.5
8267,32.14
8282,41.18
8304,102.29
8306,87.71
8308,76.6
8309,39.09
8316,90.23
8331,76.63
8334,104.62
8341,131.93
8354,198.91
8359,88.45
8377,667.12
8410,5.85
8411,261.67
8418,102.71
8424,73.9
8439,56.28
8473,81.28
8570,37.61
8572,7.61
8591,121.61
8593,20.28
8595,22.35
8601,42.54
8604,43.89
8630,153.39
8697,54.26
8725,120.96
8729,3.44
8750,45.35
8766,20.54
8795,119.87
8801,30.61
8802,79.54
8804,64.93
8830,68.4
8876,52.74
9001,47.91
9003,46.36
9005,24.12
9006,23.25
9007,30.35
9008,16.04
9009,27.16
9020,61.0
9021,48.54
9022,68.45
9023,24.51
9024,91.35
9031,66.9
9041,54.34
9042,89.9
9044,71.74
9045,52.71
9048,28.04
9064,39.88
9065,36.32
9069,40.95
9072,156.72
9076,42.56
9101,168.86
9104,197.38
9107,93.47
9142,59.89
9143,22.81
9147,111.71
9201,52.21
9202,45.55
9301,30.25
9302,59.8
9364,65.25
9401,120.35
9404,70.16
9432,2.7
9433,54.45
9434,4.57
9435,859.34
9449,84.79
9468,82.64
9501,20.95
9502,89.34
9503,84.9
9504,30.66
9505,36.63
9506,40.16
9507,78.0
9508,62.27
9509,30.54
9513,94.21
9531,147.11
9532,147.46
9533,34.03
9602,37.39
9616,70.67
9627,150.86
9684,65.05
9697,130.15
9706,106.38
9735,110.72
9744,57.62
9759,61.86
9766,662.49
9831,13.33
9843,107.77
9861,79.29
9934,54.32
9962,121.03
9983,1600.0
9984,418.02
9987,52.41
9989,50.75
