code,atr14
1332,21.93
1333,15.61
1414,16.14
1417,56.14
1605,116.5
1719,29.96
1721,101.21
1801,403.57
1802,66.5
1803,69.43
1808,54.79
1812,130.64
1820,84.0
1860,28.46
1878,52.14
1893,40.64
1911,23.89
1925,64.21
1928,48.93
1942,152.64
1944,176.79
1951,40.57
1959,175.86
1963,79.21
1969,98.57
2002,31.64
2127,13.99
2181,6.69
2201,31.39
2206,71.0
2212,80.43
2222,69.18
2229,41.75
2264,25.64
2267,46.14
2269,90.93
2282,105.93
2327,87.07
2331,18.46
2371,35.86
2413,61.61
2432,61.39
2433,34.79
2501,34.89
2502,23.39
2503,51.29
2531,79.21
2579,79.0
2587,66.21
2593,88.46
2607,92.43
2670,48.22
2768,154.71
2784,29.11
2801,38.07
2802,139.07
2809,83.07
2810,70.14
2811,32.21
285A,3341.43
2871,35.75
2875,198.14
2897,49.89
2914,98.93
3003,26.32
3038,103.79
3048,34.82
3064,48.25
3086,83.06
3088,53.54
3092,21.29
3099,82.0
3105,83.07
3107,76.5
3116,49.64
3132,153.36
3197,71.57
3231,11.32
3288,134.57
3289,22.04
3291,36.64
3349,181.86
3360,42.75
3382,32.6
3391,58.46
3397,76.71
3401,42.07
3402,30.54
3405,42.86
3407,35.82
3436,209.75
3549,113.29
3563,236.57
3591,65.86
3626,100.0
3635,34.29
3659,70.86
3697,39.55
3769,272.93
3774,81.57
3861,12.39
3923,44.6
3941,33.32
3994,349.57
4004,864.64
4005,21.51
4021,217.21
4042,50.68
4043,127.0
4045,36.79
4061,99.86
4062,1364.29
4063,95.21
4091,134.29
4114,56.82
4118,123.29
4151,80.79
417A,31.5
4182,119.29
4183,70.04
4186,324.5
4188,41.54
4194,295.0
4202,28.39
4203,294.36
4204,40.18
4205,66.36
4206,72.64
4208,60.21
4272,39.71
4307,152.14
4324,97.29
4385,171.64
4401,119.43
4403,51.43
4452,62.29
4502,104.07
4503,45.14
4506,62.18
4507,56.43
4516,56.07
4519,123.36
4523,83.43
4527,65.89
4528,51.36
4536,39.46
4540,44.0
4543,53.64
4544,72.64
4568,65.86
4578,246.07
4587,37.79
4612,27.29
4613,39.43
4626,20.21
4631,158.43
4661,70.64
4665,54.64
4666,41.89
4676,82.86
4680,52.07
4681,32.79
4684,130.43
4689,14.91
4704,201.36
4716,209.43
4732,27.18
4733,203.64
4751,30.43
4755,18.53
4768,73.93
4887,24.46
4901,67.86
4902,22.16
4911,108.64
4912,38.14
4922,125.0
4927,18.64
4967,94.43
4980,111.54
5016,178.07
5019,49.32
5020,39.82
5021,112.14
5076,64.93
5101,241.5
5105,104.86
5108,71.79
5110,62.39
5201,127.36
5214,121.5
5232,168.64
5233,97.5
5301,85.61
5332,158.57
5333,186.86
5334,271.71
5344,2437.14
5393,101.36
5401,17.44
5406,37.18
5411,47.89
5444,278.57
5463,34.11
5471,87.36
5631,298.14
5706,1493.21
5711,309.79
5713,588.57
5714,422.07
5801,257.36
5802,88.57
5803,297.43
5830,110.5
5831,93.14
5832,84.0
5838,210.29
5844,118.5
5901,72.79
5929,64.36
5938,17.82
5947,54.0
5991,104.71
6005,71.0
6098,615.36
6113,78.46
6134,275.36
6136,105.21
6141,78.04
6146,2526.43
6178,61.61
6268,171.29
6269,323.14
6273,2282.86
6301,181.79
6302,216.86
6305,183.5
6323,166.71
6326,94.39
6361,165.64
6367,366.43
6368,463.93
6370,223.21
6383,161.57
6417,37.57
6436,51.29
6448,130.71
6457,113.5
6460,92.82
6465,90.64
6471,27.39
6472,10.86
6473,73.43
6479,106.29
6481,228.43
6501,137.64
6503,156.64
6504,449.29
6506,151.91
6525,534.36
6526,75.79
6532,229.61
6544,35.04
6586,103.5
6592,36.96
6632,23.45
6645,217.86
6674,172.29
6701,148.86
6702,105.64
6707,268.43
6723,154.07
6724,85.89
6728,238.93
6752,161.64
6753,21.19
6754,113.07
6758,91.86
6762,112.54
6770,71.61
6806,655.71
6841,138.43
6845,29.0
6849,31.07
6856,738.21
6857,1777.14
6861,2040.0
6869,48.43
6902,33.0
6920,1862.86
6923,76.29
6925,124.93
6951,248.93
6952,93.5
6954,165.93
6963,246.64
6965,69.79
6971,88.21
6976,587.93
6981,397.71
6988,97.86
7003,178.5
7011,117.57
7012,79.39
7013,117.96
7164,31.93
7167,40.86
7180,40.43
7181,39.64
7182,91.5
7186,49.57
7189,135.93
7201,10.22
7202,55.93
7203,71.25
7211,13.88
7240,69.0
7259,51.0
7261,35.43
7267,44.29
7269,59.57
7270,58.71
7272,59.57
7276,51.5
7282,148.64
7309,390.0
7313,23.61
7337,51.79
7453,121.58
7458,28.29
7459,48.43
7476,55.68
7532,21.04
7550,356.43
7616,32.18
7649,28.24
7701,74.0
7729,716.43
7731,55.04
7733,53.11
7735,542.86
7741,565.71
7747,120.14
7751,75.5
7752,36.64
7832,153.21
7846,47.64
7867,85.36
7911,175.71
7912,67.86
7936,154.86
7951,26.04
7956,45.11
7974,259.43
7984,15.55
7988,110.0
8001,53.11
8002,134.29
8012,29.25
8015,235.57
8020,50.57
8031,129.93
8035,2376.43
8053,52.54
8056,105.0
8058,133.07
8060,79.0
8086,26.61
8088,55.68
8111,35.21
8113,16.31
8129,65.21
8136,44.04
8174,60.86
8227,56.07
8233,64.16
8242,57.0
8252,41.57
8253,99.86
8267,32.14
8282,35.32
8304,80.43
8306,86.21
8308,69.18
8309,41.82
8316,162.21
8331,74.0
8334,74.29
8341,104.71
8354,179.29
8359,70.14
8377,237.29
8410,5.59
8411,218.71
8418,79.14
8424,53.71
8439,60.96
8473,100.5
8570,34.94
8572,6.04
8591,145.14
8593,18.0
8595,21.86
8601,41.21
8604,40.75
8630,125.86
8697,48.07
8725,107.86
8729,3.91
8750,41.36
8766,175.93
8795,109.79
8801,31.14
8802,81.0
8804,57.64
8830,75.0
8876,47.68
9001,38.93
9003,33.89
9005,21.43
9006,20.18
9007,23.75
9008,11.51
9009,24.93
9020,59.5
9021,42.11
9022,75.64
9023,19.29
9024,81.14
9031,52.43
9041,43.0
9042,73.43
9044,51.86
9045,42.36
9048,20.29
9064,37.11
9065,141.36
9069,39.25
9072,130.64
9076,45.39
9101,222.36
9104,222.86
9107,112.5
9142,51.86
9143,26.11
9147,131.07
9201,48.5
9202,41.54
9301,22.89
9302,54.57
9364,53.93
9401,103.36
9404,56.5
9432,3.17
9433,47.82
9434,3.81
9435,640.0
9449,111.29
9468,79.36
9501,23.64
9502,91.64
9503,92.39
9504,29.9
9505,29.46
9506,35.57
9507,75.25
9508,72.93
9509,32.64
9513,94.07
9531,138.43
9532,125.93
9533,28.11
9602,36.38
9616,72.29
9627,119.07
9684,96.32
9697,136.57
9706,122.0
9735,89.21
9744,40.64
9759,53.32
9766,553.57
9831,14.11
9843,105.57
9861,68.17
9934,66.39
9962,121.07
9983,1607.42
9984,348.71
9987,85.86
9989,47.5
