code,atr14
1332,21.78
1333,17.25
1414,18.86
1417,50.02
1605,109.86
1719,32.39
1721,137.44
1801,368.0
1802,73.36
1803,81.64
1808,52.59
1812,138.58
1820,93.23
1860,26.52
1878,51.83
1893,50.19
1911,25.29
1925,34.4
1928,52.36
1942,144.78
1944,163.95
1951,37.79
1959,151.67
1963,69.89
1969,109.03
2002,36.35
2127,12.04
2181,7.58
2201,31.12
2206,68.21
2212,93.0
2222,68.3
2229,43.46
2264,28.13
2267,47.68
2269,81.08
2282,43.35
2327,104.23
2331,25.2
2371,46.29
2413,49.25
2432,56.54
2433,32.35
2501,40.46
2502,24.25
2503,48.21
2531,82.11
2579,76.64
2587,66.64
2593,73.29
2607,103.7
2670,47.36
2768,130.24
2784,38.05
2801,34.71
2802,122.4
2809,80.93
2810,62.89
2811,41.07
285A,1054.64
2871,43.81
2875,180.33
2897,60.57
2914,114.29
3003,26.43
3038,101.5
3048,32.75
3064,54.96
3086,56.79
3088,56.01
3092,23.28
3099,34.77
3105,96.11
3107,75.98
3116,40.7
3132,151.41
3197,70.93
3231,12.07
3288,156.5
3289,20.05
3291,38.82
3349,171.07
3360,49.61
3382,33.25
3391,55.64
3397,100.14
3401,36.2
3402,25.72
3405,35.71
3407,32.85
3436,184.96
3549,112.64
3563,198.36
3591,72.12
3626,99.79
3635,35.89
3659,69.38
3697,32.04
3769,213.07
3774,74.03
3861,12.08
3923,33.53
3941,30.45
3994,254.57
4004,922.5
4005,17.45
4021,177.16
4042,44.72
4043,108.34
4045,28.61
4061,92.87
4062,737.85
4063,107.56
4091,126.11
4114,46.18
4118,106.5
4151,49.18
417A,33.23
4182,118.61
4183,61.74
4186,317.86
4188,35.72
4194,285.36
4202,24.92
4203,313.53
4204,39.15
4205,50.05
4206,65.76
4208,62.56
4272,41.39
4307,137.52
4324,73.5
4385,132.57
4401,100.8
4403,46.22
4452,56.0
4502,108.72
4503,45.28
4506,56.57
4507,54.8
4516,49.16
4519,155.07
4523,90.47
4527,62.64
4528,44.06
4536,38.67
4540,52.59
4543,50.66
4544,66.56
4568,69.99
4578,305.71
4587,34.04
4612,25.43
4613,46.41
4626,23.93
4631,127.14
4661,82.51
4665,58.49
4666,46.64
4676,75.33
4680,44.6
4681,29.99
4684,119.22
4689,15.8
4704,193.86
4716,268.93
4732,27.95
4733,168.66
4751,22.61
4755,15.61
4768,66.07
4887,31.25
4901,63.44
4902,24.49
4911,105.64
4912,29.04
4922,113.71
4927,20.89
4967,198.64
4980,109.56
5016,147.0
5019,61.39
5020,40.5
5021,119.49
5076,60.18
5101,200.43
5105,107.0
5108,70.21
5110,42.61
5201,120.86
5214,119.86
5232,51.77
5233,93.29
5301,106.07
5332,131.68
5333,164.63
5334,114.21
5344,2201.35
5393,84.17
5401,13.82
5406,34.82
5411,35.09
5444,243.74
5463,26.31
5471,71.99
5631,293.58
5706,127.52
5711,158.64
5713,385.88
5714,261.0
5801,226.56
5802,95.27
5803,242.2
5830,125.06
5831,96.12
5832,102.98
5838,221.64
5844,132.22
5901,84.04
5929,61.46
5938,18.24
5947,58.24
5991,81.3
6005,71.16
6098,585.29
6113,75.27
6134,269.53
6136,94.5
6141,69.75
6146,2177.78
6178,59.09
6268,153.57
6269,293.36
6273,2110.43
6301,214.74
6302,185.64
6305,136.54
6323,175.71
6326,74.61
6361,167.07
6367,339.87
6368,80.16
6370,168.58
6383,141.64
6417,47.21
6436,51.27
6448,119.81
6457,104.76
6460,92.54
6465,90.43
6471,24.39
6472,9.16
6473,61.79
6479,111.02
6481,225.86
6501,134.41
6503,134.73
6504,425.19
6506,136.86
6525,522.86
6526,105.31
6532,218.36
6544,38.75
6586,93.3
6592,35.79
6632,22.54
6645,181.86
6674,170.28
6701,140.54
6702,111.01
6707,226.64
6723,137.71
6724,84.55
6728,252.5
6752,172.34
6753,23.38
6754,109.06
6758,88.69
6762,109.29
6770,63.81
6806,546.54
6841,109.44
6845,27.37
6849,34.85
6856,736.07
6857,1592.5
6861,1927.46
6869,43.17
6902,28.73
6920,2003.57
6923,76.45
6925,134.07
6951,268.85
6952,74.82
6954,149.57
6963,209.86
6965,65.55
6971,105.23
6976,580.87
6981,401.94
6988,89.05
7003,155.14
7011,117.41
7012,75.96
7013,112.2
7164,34.96
7167,45.01
7180,50.55
7181,39.56
7182,98.93
7186,51.65
7189,137.63
7201,7.06
7202,41.56
7203,54.42
7211,10.01
7240,64.66
7259,45.71
7261,25.43
7267,38.43
7269,45.36
7270,51.74
7272,47.39
7276,56.36
7282,27.1
7309,336.79
7313,22.42
7337,55.19
7453,109.93
7458,32.72
7459,75.6
7476,46.29
7532,19.05
7550,350.66
7616,40.68
7649,31.21
7701,74.98
7729,702.53
7731,62.22
7733,42.71
7735,645.5
7741,555.71
7747,93.14
7751,72.79
7752,38.69
7832,163.93
7846,42.18
7867,116.03
7911,81.8
7912,66.28
7936,115.29
7951,28.49
7956,45.79
7974,256.57
7984,16.26
7988,51.82
8001,57.94
8002,126.61
8012,22.21
8015,204.69
8020,48.48
8031,118.58
8035,440.41
8053,44.68
8056,101.89
8058,113.57
8060,68.79
8086,27.22
8088,46.01
8111,35.94
8113,15.98
8129,62.38
8136,39.61
8174,20.26
8227,66.64
8233,44.61
8242,50.94
8252,37.7
8253,91.0
8267,33.11
8282,39.2
8304,96.14
8306,87.12
8308,75.67
8309,37.62
8316,90.39
8331,77.79
8334,95.63
8341,127.04
8354,185.4
8359,86.24
8377,692.9
8410,5.82
8411,262.73
8418,99.57
8424,66.69
8439,54.56
8473,85.91
8570,33.04
8572,7.16
8591,119.55
8593,19.74
8595,21.79
8601,42.43
8604,44.14
8630,148.77
8697,53.92
8725,119.04
8729,3.16
8750,44.09
8766,18.8
8795,117.52
8801,30.2
8802,83.37
8804,66.14
8830,74.83
8876,49.61
9001,47.02
9003,45.19
9005,25.86
9006,21.99
9007,30.32
9008,16.49
9009,27.59
9020,63.53
9021,47.66
9022,69.97
9023,24.52
9024,85.07
9031,68.49
9041,50.65
9042,83.2
9044,70.6
9045,53.29
9048,27.82
9064,36.71
9065,35.67
9069,39.71
9072,82.15
9076,42.65
9101,173.24
9104,192.47
9107,91.64
9142,57.42
9143,21.39
9147,124.5
9201,47.06
9202,42.08
9301,29.06
9302,63.46
9364,63.62
9401,107.45
9404,66.88
9432,3.02
9433,54.56
9434,4.54
9435,874.47
9449,84.21
9468,74.21
9501,21.21
9502,89.59
9503,85.53
9504,30.07
9505,33.27
9506,38.6
9507,75.97
9508,60.93
9509,29.35
9513,90.81
9531,149.4
9532,161.85
9533,34.49
9602,40.0
9616,66.18
9627,159.86
9684,66.21
9697,130.88
9706,105.13
9735,102.65
9744,55.43
9759,60.25
9766,633.53
9831,13.71
9843,115.81
9861,76.43
9934,55.55
9962,124.29
9983,1479.29
9984,434.89
9987,50.26
9989,51.0
