code,atr14
1332,23.61
1333,17.21
1414,19.11
1417,51.21
1605,109.64
1719,30.96
1721,133.57
1801,349.64
1802,70.82
1803,82.75
1808,51.04
1812,135.07
1820,87.0
1860,28.07
1878,53.29
1893,49.14
1911,22.75
1925,73.43
1928,50.29
1942,136.36
1944,159.79
1951,36.61
1959,147.0
1963,68.61
1969,109.93
2002,38.46
2127,12.56
2181,7.89
2201,30.75
2206,69.14
2212,89.93
2222,76.39
2229,41.18
2264,27.75
2267,47.86
2269,89.43
2282,115.36
2327,110.93
2331,24.89
2371,43.71
2413,52.46
2432,57.46
2433,34.07
2501,41.89
2502,24.25
2503,49.71
2531,90.43
2579,71.71
2587,66.43
2593,69.21
2607,98.07
2670,49.57
2768,133.43
2784,36.46
2801,38.32
2802,122.5
2809,83.29
2810,63.64
2811,38.0
285A,3460.0
2871,41.14
2875,185.79
2897,60.68
2914,112.36
3003,26.32
3038,122.46
3048,32.5
3064,54.07
3086,64.68
3088,55.79
3092,21.57
3099,69.57
3105,92.21
3107,79.0
3116,40.54
3132,153.0
3197,72.5
3231,11.69
3288,154.57
3289,20.61
3291,37.5
3349,188.5
3360,50.96
3382,32.43
3391,56.25
3397,93.71
3401,38.54
3402,27.86
3405,38.36
3407,31.82
3436,178.39
3549,104.71
3563,217.64
3591,63.29
3626,100.64
3635,36.25
3659,80.0
3697,35.82
3769,242.79
3774,73.5
3861,12.01
3923,39.92
3941,27.89
3994,316.07
4004,890.36
4005,18.65
4021,176.71
4042,46.36
4043,120.79
4045,31.54
4061,93.79
4062,1535.36
4063,96.07
4091,126.64
4114,47.79
4118,111.71
4151,49.18
417A,33.11
4182,116.86
4183,58.25
4186,312.36
4188,35.96
4194,303.14
4202,24.75
4203,308.64
4204,38.5
4205,50.25
4206,71.0
4208,61.57
4272,40.71
4307,154.64
4324,76.21
4385,146.29
4401,103.43
4403,42.43
4452,58.36
4502,115.64
4503,46.57
4506,57.57
4507,58.71
4516,46.0
4519,138.86
4523,91.5
4527,69.21
4528,45.36
4536,39.21
4540,49.36
4543,50.93
4544,65.57
4568,71.32
4578,295.0
4587,32.0
4612,24.14
4613,43.04
4626,21.79
4631,126.86
4661,84.29
4665,59.0
4666,32.32
4676,76.57
4680,56.11
4681,28.36
4684,123.14
4689,15.29
4704,215.36
4716,279.21
4732,27.14
4733,182.29
4751,24.43
4755,16.11
4768,71.79
4887,28.21
4901,59.79
4902,25.46
4911,100.86
4912,29.64
4922,115.71
4927,20.43
4967,183.64
4980,93.82
5016,151.64
5019,59.39
5020,40.89
5021,117.36
5076,57.18
5101,191.93
5105,101.79
5108,76.79
5110,45.29
5201,117.36
5214,121.57
5232,146.29
5233,96.0
5301,100.54
5332,124.57
5333,169.21
5334,237.5
5344,2499.29
5393,86.64
5401,14.24
5406,34.82
5411,37.79
5444,244.29
5463,26.64
5471,80.57
5631,285.93
5706,1288.21
5711,176.64
5713,394.57
5714,271.29
5801,233.36
5802,89.96
5803,242.07
5830,121.79
5831,93.79
5832,96.07
5838,208.36
5844,133.21
5901,75.29
5929,60.79
5938,17.29
5947,61.14
5991,85.79
6005,63.57
6098,599.64
6113,75.18
6134,274.43
6136,94.64
6141,73.11
6146,2193.57
6178,61.75
6268,156.64
6269,303.43
6273,2082.86
6301,212.86
6302,192.43
6305,148.43
6323,167.43
6326,79.21
6361,173.21
6367,362.86
6368,402.86
6370,179.29
6383,139.29
6417,47.0
6436,50.29
6448,125.5
6457,103.64
6460,90.21
6465,98.86
6471,24.32
6472,9.56
6473,59.14
6479,110.36
6481,234.29
6501,130.64
6503,139.93
6504,432.14
6506,135.21
6525,556.36
6526,95.54
6532,244.14
6544,35.04
6586,94.29
6592,35.11
6632,22.31
6645,182.21
6674,177.07
6701,152.64
6702,118.14
6707,234.14
6723,143.43
6724,83.75
6728,249.0
6752,179.64
6753,23.56
6754,109.43
6758,87.0
6762,107.21
6770,63.68
6806,542.14
6841,111.93
6845,28.86
6849,33.07
6856,736.43
6857,1612.5
6861,1900.87
6869,46.11
6902,28.25
6920,2046.43
6923,76.0
6925,132.64
6951,278.71
6952,74.46
6954,158.0
6963,229.64
6965,66.93
6971,101.43
6976,594.57
6981,411.43
6988,94.07
7003,163.57
7011,119.14
7012,78.93
7013,114.11
7164,32.71
7167,43.61
7180,45.54
7181,39.71
7182,93.36
7186,52.5
7189,137.43
7201,6.78
7202,41.43
7203,54.36
7211,9.91
7240,66.04
7259,45.25
7261,27.32
7267,40.11
7269,44.75
7270,51.54
7272,50.46
7276,50.75
7282,124.64
7309,372.14
7313,22.32
7337,52.93
7453,107.43
7458,31.04
7459,70.14
7476,54.71
7532,20.04
7550,346.07
7616,32.96
7649,30.68
7701,78.14
7729,693.57
7731,58.71
7733,45.14
7735,612.5
7741,525.0
7747,100.07
7751,78.21
7752,41.0
7832,171.29
7846,46.11
7867,105.71
7911,163.79
7912,62.68
7936,127.43
7951,27.46
7956,44.21
7974,260.71
7984,15.31
7988,91.43
8001,60.04
8002,130.79
8012,22.32
8015,207.57
8020,47.43
8031,126.36
8035,2194.29
8053,46.11
8056,105.21
8058,117.64
8060,71.07
8086,24.61
8088,46.79
8111,34.89
8113,16.34
8129,64.21
8136,42.79
8174,57.64
8227,56.5
8233,47.93
8242,47.82
8252,39.46
8253,88.29
8267,33.96
8282,34.46
8304,88.5
8306,86.71
8308,75.18
8309,38.36
8316,178.79
8331,76.96
8334,92.64
8341,124.21
8354,176.43
8359,81.61
8377,280.21
8410,5.65
8411,246.57
8418,94.36
8424,61.0
8439,57.57
8473,86.57
8570,31.21
8572,6.56
8591,122.36
8593,18.68
8595,19.5
8601,39.64
8604,41.21
8630,146.36
8697,56.79
8725,120.86
8729,3.3
8750,45.43
8766,203.79
8795,116.93
8801,30.46
8802,84.29
8804,63.57
8830,71.64
8876,48.0
9001,42.57
9003,39.14
9005,23.86
9006,21.57
9007,28.5
9008,15.76
9009,28.11
9020,61.21
9021,46.61
9022,71.93
9023,23.0
9024,84.57
9031,59.79
9041,47.43
9042,78.43
9044,60.29
9045,45.93
9048,24.96
9064,37.39
9065,136.5
9069,38.5
9072,81.64
9076,40.75
9101,201.64
9104,219.29
9107,101.14
9142,58.21
9143,21.82
9147,118.14
9201,42.57
9202,39.29
9301,25.07
9302,58.36
9364,55.43
9401,98.93
9404,62.46
9432,3.16
9433,55.36
9434,4.36
9435,822.14
9449,94.57
9468,73.86
9501,21.85
9502,88.79
9503,84.43
9504,30.75
9505,33.0
9506,39.64
9507,78.18
9508,63.68
9509,30.54
9513,91.21
9531,151.29
9532,161.14
9533,35.79
9602,43.5
9616,67.71
9627,157.43
9684,69.61
9697,140.29
9706,105.21
9735,102.5
9744,48.93
9759,57.71
9766,647.14
9831,12.88
9843,124.39
9861,71.43
9934,55.54
9962,123.64
9983,1422.14
9984,461.21
9987,93.43
9989,49.36
