code,atr14
1332,21.57
1333,17.11
1414,18.11
1417,42.37
1605,93.29
1719,29.53
1721,131.01
1801,283.26
1802,60.94
1803,61.68
1808,46.85
1812,108.99
1820,87.48
1860,25.06
1878,47.8
1893,44.88
1911,22.64
1925,32.15
1928,45.43
1942,123.66
1944,138.19
1951,34.22
1959,118.62
1963,56.71
1969,98.05
2002,35.8
2127,10.29
2181,6.21
2201,30.88
2206,65.07
2212,84.07
2222,69.88
2229,41.96
2264,23.34
2267,43.39
2269,80.32
2282,41.39
2327,106.81
2331,25.42
2371,37.36
2413,48.32
2432,47.39
2433,31.61
2501,45.89
2502,25.75
2503,50.18
2531,98.43
2579,86.07
2587,69.07
2593,67.57
2607,104.66
2670,48.79
2768,112.0
2784,38.53
2801,40.09
2802,130.22
2809,84.36
2810,72.03
2811,40.82
285A,949.88
2871,42.55
2875,195.7
2897,56.67
2914,112.79
3003,25.36
3038,81.07
3048,28.75
3064,56.14
3086,58.0
3088,51.27
3092,23.13
3099,40.08
3105,85.64
3107,75.06
3116,31.01
3132,129.3
3197,63.36
3231,12.66
3288,150.26
3289,19.6
3291,37.07
3349,160.0
3360,45.43
3382,30.93
3391,54.64
3397,98.71
3401,31.58
3402,23.82
3405,33.64
3407,30.17
3436,169.5
3549,167.79
3563,183.97
3591,71.84
3626,106.81
3635,34.32
3659,73.33
3697,31.99
3769,213.92
3774,69.81
3861,11.39
3923,32.96
3941,25.81
3994,237.71
4004,888.24
4005,14.77
4021,174.91
4042,40.66
4043,93.85
4045,22.71
4061,82.04
4062,722.95
4063,118.87
4091,124.91
4114,41.18
4118,95.64
4151,40.14
417A,29.67
4182,109.71
4183,56.81
4186,273.93
4188,30.87
4194,229.79
4202,24.89
4203,262.04
4204,36.06
4205,45.76
4206,64.98
4208,59.52
4272,38.81
4307,135.91
4324,72.21
4385,115.36
4401,85.75
4403,40.03
4452,52.71
4502,103.49
4503,46.35
4506,52.14
4507,69.23
4516,56.24
4519,168.79
4523,97.16
4527,65.85
4528,40.55
4536,40.33
4540,51.4
4543,53.98
4544,71.14
4568,68.21
4578,298.93
4587,34.18
4612,26.25
4613,45.72
4626,36.29
4631,108.5
4661,72.94
4665,62.18
4666,55.43
4676,76.76
4680,40.8
4681,28.12
4684,113.16
4689,14.44
4704,192.0
4716,276.71
4732,27.78
4733,172.43
4751,22.22
4755,15.59
4768,67.43
4887,30.65
4901,66.49
4902,23.26
4911,109.36
4912,26.18
4922,107.64
4927,20.61
4967,200.86
4980,111.94
5016,123.31
5019,53.12
5020,34.07
5021,113.62
5076,88.56
5101,172.86
5105,82.14
5108,64.21
5110,33.96
5201,102.14
5214,113.93
5232,49.41
5233,93.34
5301,93.0
5332,141.95
5333,151.12
5334,99.32
5344,2159.22
5393,74.84
5401,12.49
5406,31.34
5411,32.3
5444,234.41
5463,24.74
5471,66.45
5631,231.83
5706,130.59
5711,117.23
5713,300.71
5714,186.86
5801,204.89
5802,86.36
5803,210.38
5830,114.41
5831,85.83
5832,98.68
5838,196.43
5844,119.18
5901,84.11
5929,57.64
5938,19.01
5947,55.82
5991,88.37
6005,61.14
6098,555.41
6113,63.38
6134,264.12
6136,80.5
6141,62.14
6146,2084.5
6178,54.29
6268,123.86
6269,237.57
6273,1836.15
6301,224.23
6302,162.71
6305,117.86
6323,174.79
6326,72.18
6361,155.29
6367,350.1
6368,77.89
6370,131.08
6383,119.36
6417,41.95
6436,44.88
6448,101.01
6457,88.25
6460,89.7
6465,81.36
6471,21.71
6472,7.75
6473,48.47
6479,113.28
6481,189.79
6501,130.23
6503,114.11
6504,386.57
6506,124.93
6525,471.36
6526,104.47
6532,231.79
6544,38.36
6586,84.76
6592,31.82
6632,21.91
6645,156.86
6674,151.5
6701,138.24
6702,109.31
6707,212.29
6723,141.93
6724,72.67
6728,240.79
6752,158.81
6753,19.98
6754,103.35
6758,83.65
6762,123.18
6770,54.39
6806,522.25
6841,89.97
6845,26.38
6849,31.77
6856,680.36
6857,1709.64
6861,1664.89
6869,41.61
6902,24.58
6920,2200.71
6923,62.77
6925,142.5
6951,247.41
6952,64.14
6954,141.29
6963,177.5
6965,69.55
6971,107.2
6976,609.22
6981,389.53
6988,76.34
7003,138.37
7011,107.42
7012,61.59
7013,91.44
7164,34.79
7167,44.33
7180,51.8
7181,37.99
7182,90.64
7186,48.59
7189,130.04
7201,6.5
7202,34.32
7203,46.45
7211,8.59
7240,59.43
7259,37.58
7261,20.6
7267,33.57
7269,36.75
7270,43.13
7272,40.82
7276,48.31
7282,23.63
7309,302.5
7313,18.81
7337,53.61
7453,101.14
7458,32.86
7459,75.58
7476,41.52
7532,16.64
7550,328.56
7616,45.89
7649,28.96
7701,87.69
7729,702.56
7731,60.22
7733,39.68
7735,635.97
7741,573.21
7747,88.14
7751,71.79
7752,34.01
7832,149.08
7846,40.29
7867,104.89
7911,75.33
7912,64.99
7936,116.57
7951,25.1
7956,37.43
7974,203.93
7984,15.41
7988,47.35
8001,52.02
8002,106.76
8012,20.87
8015,169.19
8020,43.06
8031,105.1
8035,482.75
8053,39.95
8056,86.65
8058,96.38
8060,57.79
8086,28.07
8088,38.16
8111,33.06
8113,15.63
8129,87.52
8136,35.88
8174,18.93
8227,66.07
8233,42.29
8242,52.22
8252,34.75
8253,90.43
8267,29.43
8282,40.23
8304,88.86
8306,82.05
8308,72.78
8309,36.95
8316,85.39
8331,72.87
8334,96.18
8341,118.87
8354,185.2
8359,79.16
8377,622.67
8410,5.82
8411,251.49
8418,99.72
8424,69.29
8439,53.71
8473,75.32
8570,33.68
8572,7.5
8591,119.84
8593,19.26
8595,23.08
8601,40.25
8604,39.18
8630,147.8
8697,52.84
8725,114.36
8729,3.25
8750,42.49
8766,20.93
8795,111.1
8801,27.81
8802,76.32
8804,62.29
8830,63.49
8876,50.12
9001,46.09
9003,44.76
9005,22.8
9006,23.89
9007,29.33
9008,15.83
9009,28.15
9020,58.57
9021,48.04
9022,66.7
9023,25.22
9024,90.63
9031,65.25
9041,54.77
9042,94.06
9044,71.56
9045,52.29
9048,27.29
9064,38.03
9065,33.21
9069,40.13
9072,165.2
9076,42.34
9101,154.41
9104,183.31
9107,83.52
9142,56.85
9143,22.65
9147,100.36
9201,50.85
9202,44.49
9301,28.84
9302,55.44
9364,62.35
9401,122.26
9404,66.69
9432,2.58
9433,49.68
9434,4.04
9435,819.92
9449,78.93
9468,84.36
9501,18.71
9502,81.18
9503,77.19
9504,27.57
9505,36.22
9506,36.22
9507,68.86
9508,63.94
9509,29.01
9513,87.28
9531,143.25
9532,134.83
9533,31.61
9602,35.29
9616,70.23
9627,138.71
9684,60.65
9697,120.26
9706,100.69
9735,109.26
9744,57.44
9759,60.18
9766,684.29
9831,12.04
9843,113.05
9861,77.43
9934,47.64
9962,122.16
9983,1647.14
9984,396.28
9987,54.76
9989,49.79
