code,atr14
1332,25.68
1333,18.93
1414,18.5
1417,69.57
1605,107.64
1719,27.0
1721,117.43
1801,377.5
1802,72.29
1803,55.14
1808,53.61
1812,120.07
1820,97.57
1860,29.32
1878,50.93
1893,45.54
1911,30.46
1925,60.79
1928,44.71
1942,161.93
1944,184.43
1951,61.61
1959,175.43
1963,70.82
1969,132.07
2002,37.36
2127,13.09
2181,6.17
2201,40.18
2206,89.5
2212,80.21
2222,72.14
2229,47.21
2264,33.89
2267,61.0
2269,103.71
2282,118.57
2327,77.14
2331,22.43
2371,26.71
2413,100.39
2432,58.0
2433,35.43
2501,66.79
2502,36.46
2503,77.64
2531,62.71
2579,106.36
2587,84.57
2593,57.32
2607,139.93
2670,46.0
2768,135.93
2784,32.07
2801,43.79
2802,209.79
2809,85.71
2810,50.29
2811,42.36
285A,4732.14
2871,62.79
2875,212.5
2897,65.43
2914,124.14
3003,24.39
3038,57.89
3048,29.68
3064,52.75
3086,67.11
3088,54.43
3092,22.79
3099,119.07
3105,105.5
3107,89.0
3116,41.29
3132,154.36
3197,88.0
3231,11.36
3288,188.14
3289,20.18
3291,43.82
3349,172.21
3360,51.11
3382,36.04
3391,49.96
3397,99.14
3401,39.93
3402,34.07
3405,56.0
3407,34.32
3436,298.29
3549,98.21
3563,240.64
3591,99.93
3626,96.5
3635,40.11
3659,141.21
3697,46.56
3769,418.0
3774,96.71
3861,14.4
3923,50.0
3941,32.25
3994,386.07
4004,1046.79
4005,14.83
4021,242.57
4042,47.32
4043,135.93
4045,27.07
4061,150.86
4062,1501.79
4063,133.93
4091,146.79
4114,91.64
4118,140.0
4151,52.04
417A,33.82
4182,189.0
4183,50.54
4186,400.93
4188,30.5
4194,276.36
4202,27.54
4203,283.93
4204,38.57
4205,51.5
4206,73.86
4208,89.21
4272,36.07
4307,157.43
4324,133.14
4385,213.21
4401,163.36
4403,51.11
4452,81.86
4502,106.21
4503,56.89
4506,49.71
4507,55.64
4516,77.0
4519,162.57
4523,118.07
4527,103.07
4528,49.54
4536,56.68
4540,47.29
4543,91.57
4544,101.64
4568,80.93
4578,357.14
4587,49.31
4612,33.71
4613,57.43
4626,46.43
4631,211.71
4661,72.61
4665,92.5
4666,34.43
4676,95.36
4680,73.25
4681,47.79
4684,110.86
4689,15.38
4704,257.21
4716,236.07
4732,28.82
4733,213.0
4751,51.29
4755,30.09
4768,81.86
4887,39.29
4901,131.07
4902,25.18
4911,134.5
4912,54.18
4922,192.86
4927,29.32
4967,87.29
4980,141.04
5016,197.93
5019,37.04
5020,38.0
5021,118.79
5076,89.43
5101,346.93
5105,154.93
5108,101.21
5110,70.75
5201,126.0
5214,145.64
5232,190.29
5233,105.86
5301,57.43
5332,175.43
5333,215.93
5334,237.86
5344,3032.14
5393,111.0
5401,16.04
5406,35.21
5411,42.82
5444,333.93
5463,44.5
5471,84.68
5631,269.29
5706,2184.29
5711,322.21
5713,652.0
5714,417.5
5801,323.21
5802,114.71
5803,419.93
5830,129.29
5831,101.21
5832,86.57
5838,246.57
5844,122.29
5901,87.43
5929,73.43
5938,22.21
5947,61.71
5991,115.71
6005,94.71
6098,748.57
6113,111.25
6134,336.5
6136,123.93
6141,127.07
6146,3070.71
6178,52.14
6268,165.07
6269,536.71
6273,3430.0
6301,188.21
6302,212.14
6305,180.93
6323,211.07
6326,83.46
6361,255.79
6367,387.14
6368,578.21
6370,284.5
6383,173.07
6417,38.46
6436,58.64
6448,144.29
6457,126.86
6460,97.54
6465,118.64
6471,24.75
6472,9.43
6473,54.25
6479,113.0
6481,315.36
6501,146.5
6503,176.93
6504,544.64
6506,180.14
6525,581.5
6526,94.18
6532,277.57
6544,53.0
6586,98.14
6592,45.57
6632,25.24
6645,265.71
6674,201.43
6701,179.0
6702,110.79
6707,392.5
6723,159.29
6724,80.64
6728,411.0
6752,174.57
6753,25.55
6754,139.29
6758,107.14
6762,103.93
6770,59.29
6806,765.0
6841,173.14
6845,45.64
6849,54.96
6856,968.57
6857,1986.43
6861,2079.29
6869,78.32
6902,35.07
6920,2259.29
6923,69.93
6925,167.93
6951,386.0
6952,102.75
6954,198.64
6963,235.0
6965,105.21
6971,107.79
6976,821.79
6981,452.43
6988,78.93
7003,190.29
7011,127.86
7012,96.82
7013,108.29
7164,35.86
7167,44.39
7180,45.5
7181,48.79
7182,84.07
7186,45.46
7189,131.0
7201,10.51
7202,49.29
7203,61.93
7211,9.71
7240,52.29
7259,45.89
7261,33.43
7267,50.04
7269,52.32
7270,61.57
7272,63.5
7276,44.11
7282,134.93
7309,509.29
7313,21.14
7337,53.68
7453,119.36
7458,35.14
7459,54.39
7476,42.71
7532,26.93
7550,367.86
7616,40.11
7649,65.64
7701,95.43
7729,872.14
7731,66.86
7733,72.11
7735,624.64
7741,602.14
7747,149.0
7751,76.57
7752,37.79
7832,202.21
7846,52.57
7867,88.5
7911,242.79
7912,90.11
7936,252.93
7951,33.18
7956,51.89
7974,319.93
7984,14.51
7988,94.21
8001,51.0
8002,107.79
8012,27.18
8015,214.71
8020,53.86
8031,107.79
8035,2399.29
8053,45.43
8056,128.36
8058,99.21
8060,66.14
8086,39.14
8088,65.11
8111,59.75
8113,20.81
8129,85.29
8136,79.82
8174,42.21
8227,76.02
8233,61.25
8242,61.32
8252,45.75
8253,105.14
8267,30.89
8282,39.96
8304,85.71
8306,82.79
8308,68.36
8309,34.68
8316,147.93
8331,72.61
8334,69.93
8341,105.5
8354,202.93
8359,72.5
8377,262.93
8410,8.16
8411,210.14
8418,81.93
8424,61.0
8439,48.32
8473,88.43
8570,34.64
8572,6.04
8591,132.29
8593,23.61
8595,23.64
8601,34.36
8604,31.54
8630,149.14
8697,43.39
8725,120.14
8729,3.19
8750,42.14
8766,162.79
8795,121.14
8801,30.18
8802,79.86
8804,67.43
8830,70.0
8876,44.46
9001,44.11
9003,41.32
9005,26.86
9006,19.43
9007,30.29
9008,12.11
9009,24.14
9020,67.64
9021,53.21
9022,74.43
9023,19.14
9024,108.07
9031,59.57
9041,64.36
9042,83.5
9044,50.93
9045,48.43
9048,27.18
9064,42.54
9065,164.57
9069,51.18
9072,188.57
9076,57.39
9101,186.14
9104,214.64
9107,104.86
9142,52.14
9143,39.18
9147,171.29
9201,44.89
9202,46.21
9301,27.64
9302,65.71
9364,72.07
9401,127.57
9404,61.39
9432,2.94
9433,69.04
9434,4.19
9435,930.0
9449,135.64
9468,94.36
9501,21.29
9502,64.96
9503,61.18
9504,17.33
9505,21.19
9506,28.86
9507,41.89
9508,46.29
9509,25.14
9513,67.93
9531,104.64
9532,106.29
9533,20.79
9602,37.64
9616,99.43
9627,132.21
9684,115.43
9697,146.5
9706,149.21
9735,150.43
9744,41.0
9759,58.14
9766,730.71
9831,18.19
9843,107.11
9861,61.43
9934,55.71
9962,115.29
9983,1611.43
9984,285.21
9987,106.71
9989,60.36
