code,atr14
1332,21.06
1333,15.84
1414,18.96
1417,48.02
1605,91.21
1719,30.39
1721,140.27
1801,326.93
1802,62.71
1803,62.27
1808,45.28
1812,112.95
1820,92.96
1860,27.63
1878,47.05
1893,40.01
1911,20.46
1925,29.72
1928,40.0
1942,136.13
1944,147.66
1951,37.79
1959,137.68
1963,57.86
1969,109.03
2002,34.01
2127,9.48
2181,5.38
2201,28.93
2206,63.43
2212,76.14
2222,78.17
2229,38.96
2264,22.43
2267,38.48
2269,78.41
2282,41.36
2327,93.69
2331,23.21
2371,36.07
2413,46.32
2432,47.71
2433,26.75
2501,47.39
2502,27.89
2503,52.57
2531,95.57
2579,81.29
2587,67.86
2593,66.14
2607,98.24
2670,57.57
2768,118.39
2784,36.47
2801,41.46
2802,123.46
2809,87.36
2810,71.2
2811,38.04
285A,871.07
2871,37.45
2875,200.06
2897,49.72
2914,114.64
3003,23.54
3038,65.07
3048,28.11
3064,50.71
3086,58.5
3088,44.48
3092,22.38
3099,41.65
3105,86.79
3107,70.34
3116,30.83
3132,130.0
3197,58.86
3231,11.67
3288,127.13
3289,19.4
3291,36.61
3349,145.71
3360,42.0
3382,27.82
3391,60.36
3397,91.93
3401,32.04
3402,24.64
3405,36.11
3407,30.58
3436,161.46
3549,165.86
3563,180.41
3591,76.86
3626,86.56
3635,31.86
3659,75.04
3697,28.69
3769,203.39
3774,68.12
3861,11.07
3923,29.68
3941,28.76
3994,214.07
4004,836.82
4005,15.04
4021,193.77
4042,42.95
4043,96.48
4045,23.82
4061,80.85
4062,659.36
4063,120.63
4091,130.71
4114,43.93
4118,97.5
4151,40.21
417A,28.54
4182,101.99
4183,56.12
4186,268.43
4188,30.74
4194,213.71
4202,26.22
4203,248.78
4204,36.98
4205,46.36
4206,67.45
4208,59.31
4272,40.45
4307,119.93
4324,65.64
4385,107.36
4401,88.99
4403,43.08
4452,48.79
4502,102.86
4503,45.61
4506,50.04
4507,70.43
4516,58.42
4519,172.71
4523,101.86
4527,62.06
4528,40.82
4536,40.68
4540,49.51
4543,54.64
4544,69.77
4568,69.27
4578,297.86
4587,35.71
4612,29.5
4613,45.05
4626,40.57
4631,106.0
4661,67.7
4665,60.54
4666,60.46
4676,87.76
4680,39.86
4681,26.27
4684,99.69
4689,14.11
4704,202.64
4716,247.71
4732,25.47
4733,158.06
4751,21.0
4755,16.99
4768,67.79
4887,29.41
4901,70.33
4902,22.74
4911,110.29
4912,24.79
4922,111.5
4927,21.71
4967,202.79
4980,122.02
5016,131.3
5019,54.43
5020,34.57
5021,114.75
5076,88.68
5101,184.07
5105,77.36
5108,65.36
5110,35.46
5201,104.14
5214,121.57
5232,52.91
5233,95.9
5301,88.0
5332,144.03
5333,156.02
5334,100.97
5344,2154.58
5393,83.49
5401,13.11
5406,32.94
5411,33.26
5444,227.92
5463,27.96
5471,69.39
5631,225.9
5706,132.89
5711,126.12
5713,333.31
5714,190.79
5801,226.49
5802,91.68
5803,218.59
5830,113.93
5831,86.48
5832,96.98
5838,207.21
5844,120.13
5901,90.35
5929,54.53
5938,19.04
5947,51.48
5991,106.63
6005,60.86
6098,509.06
6113,63.92
6134,266.06
6136,81.43
6141,65.71
6146,2386.84
6178,56.95
6268,126.71
6269,224.14
6273,2014.83
6301,258.51
6302,168.79
6305,133.51
6323,165.86
6326,85.36
6361,150.29
6367,360.13
6368,82.95
6370,134.12
6383,120.79
6417,40.61
6436,48.31
6448,100.25
6457,82.5
6460,81.52
6465,80.14
6471,23.33
6472,7.99
6473,52.1
6479,116.34
6481,199.93
6501,126.43
6503,117.37
6504,418.75
6506,126.57
6525,449.15
6526,104.27
6532,214.36
6544,35.04
6586,95.59
6592,33.25
6632,22.53
6645,159.43
6674,147.02
6701,118.69
6702,92.07
6707,211.71
6723,151.86
6724,71.21
6728,229.57
6752,167.3
6753,18.6
6754,104.17
6758,75.03
6762,137.52
6770,56.48
6806,548.32
6841,96.59
6845,26.85
6849,34.3
6856,691.43
6857,1691.07
6861,1676.42
6869,44.06
6902,24.56
6920,2233.57
6923,60.76
6925,144.14
6951,247.27
6952,62.43
6954,145.5
6963,171.29
6965,74.58
6971,106.37
6976,640.81
6981,357.65
6988,79.2
7003,140.53
7011,105.77
7012,62.24
7013,87.92
7164,34.71
7167,44.28
7180,53.05
7181,37.82
7182,96.0
7186,47.88
7189,133.72
7201,6.75
7202,34.94
7203,46.47
7211,8.55
7240,59.43
7259,39.14
7261,19.8
7267,33.05
7269,40.88
7270,40.31
7272,41.75
7276,49.09
7282,26.07
7309,282.86
7313,18.85
7337,53.41
7453,100.43
7458,32.77
7459,73.81
7476,38.8
7532,15.66
7550,367.28
7616,45.79
7649,28.29
7701,84.51
7729,714.84
7731,61.75
7733,41.96
7735,638.09
7741,600.36
7747,91.86
7751,69.86
7752,34.22
7832,133.24
7846,37.79
7867,100.81
7911,79.57
7912,66.3
7936,114.43
7951,24.67
7956,37.18
7974,181.71
7984,14.84
7988,47.44
8001,50.5
8002,106.14
8012,23.26
8015,170.73
8020,46.29
8031,108.81
8035,476.67
8053,41.19
8056,76.77
8058,98.57
8060,53.79
8086,29.88
8088,40.36
8111,33.53
8113,14.63
8129,85.74
8136,36.42
8174,18.78
8227,63.86
8233,44.11
8242,50.55
8252,34.63
8253,92.71
8267,26.61
8282,43.53
8304,88.43
8306,83.65
8308,73.94
8309,38.64
8316,84.74
8331,73.98
8334,98.23
8341,116.83
8354,203.02
8359,83.36
8377,37.41
8410,5.7
8411,253.62
8418,104.8
8424,70.61
8439,53.97
8473,75.37
8570,34.68
8572,7.93
8591,121.6
8593,18.89
8595,22.7
8601,38.61
8604,37.82
8630,136.48
8697,51.78
8725,107.73
8729,3.04
8750,44.16
8766,20.87
8795,115.22
8801,25.49
8802,72.75
8804,60.86
8830,63.22
8876,49.28
9001,41.52
9003,45.6
9005,20.56
9006,23.15
9007,26.9
9008,14.88
9009,27.44
9020,53.23
9021,41.76
9022,61.61
9023,23.8
9024,80.75
9031,64.5
9041,50.22
9042,95.5
9044,71.48
9045,49.79
9048,26.75
9064,37.88
9065,32.72
9069,42.01
9072,190.9
9076,41.81
9101,156.5
9104,181.57
9107,84.06
9142,53.38
9143,21.75
9147,104.93
9201,51.24
9202,44.19
9301,28.36
9302,51.3
9364,59.67
9401,124.18
9404,64.38
9432,2.62
9433,46.26
9434,4.0
9435,859.75
9449,78.71
9468,87.14
9501,18.69
9502,76.74
9503,74.11
9504,27.23
9505,35.48
9506,36.14
9507,67.37
9508,60.36
9509,27.79
9513,89.06
9531,149.02
9532,136.77
9533,32.51
9602,31.96
9616,67.03
9627,111.5
9684,55.16
9697,120.95
9706,103.66
9735,97.33
9744,53.05
9759,54.36
9766,613.23
9831,12.81
9843,109.44
9861,71.86
9934,57.78
9962,122.95
9983,1770.71
9984,323.66
9987,53.51
9989,48.82
