code,atr14
1332,21.72
1333,17.33
1414,19.0
1417,51.68
1605,109.29
1719,32.94
1721,135.53
1801,358.74
1802,71.5
1803,82.34
1808,50.98
1812,136.62
1820,93.89
1860,27.2
1878,52.91
1893,50.23
1911,24.32
1925,35.64
1928,51.86
1942,140.95
1944,164.87
1951,37.93
1959,148.16
1963,69.39
1969,112.67
2002,36.95
2127,12.06
2181,7.69
2201,31.51
2206,70.71
2212,92.57
2222,77.83
2229,42.57
2264,28.75
2267,47.56
2269,84.9
2282,41.17
2327,110.12
2331,25.32
2371,45.57
2413,52.75
2432,58.07
2433,34.62
2501,39.64
2502,24.25
2503,47.18
2531,80.75
2579,70.5
2587,66.43
2593,71.0
2607,100.74
2670,46.82
2768,127.37
2784,37.51
2801,36.83
2802,119.92
2809,81.0
2810,63.54
2811,41.32
285A,1140.12
2871,41.35
2875,181.56
2897,60.77
2914,110.07
3003,26.79
3038,104.82
3048,32.46
3064,53.75
3086,60.07
3088,55.37
3092,22.61
3099,32.91
3105,96.04
3107,77.02
3116,40.44
3132,152.88
3197,69.79
3231,11.88
3288,152.12
3289,21.51
3291,38.32
3349,175.93
3360,50.57
3382,32.57
3391,55.29
3397,98.43
3401,36.27
3402,25.92
3405,35.75
3407,30.26
3436,175.46
3549,114.29
3563,210.99
3591,72.29
3626,104.6
3635,35.89
3659,71.72
3697,34.54
3769,232.75
3774,74.85
3861,11.97
3923,38.42
3941,28.24
3994,278.43
4004,925.71
4005,17.66
4021,176.84
4042,45.23
4043,122.62
4045,28.82
4061,92.5
4062,764.37
4063,98.68
4091,124.21
4114,45.62
4118,104.2
4151,48.64
417A,32.43
4182,117.28
4183,55.09
4186,305.5
4188,34.65
4194,299.36
4202,22.78
4203,312.92
4204,37.44
4205,51.67
4206,71.79
4208,58.43
4272,39.22
4307,155.6
4324,77.0
4385,140.5
4401,100.65
4403,43.72
4452,56.57
4502,105.83
4503,44.5
4506,55.68
4507,56.25
4516,45.98
4519,157.57
4523,87.16
4527,61.72
4528,43.86
4536,38.45
4540,49.4
4543,51.05
4544,64.16
4568,70.16
4578,307.5
4587,30.68
4612,24.64
4613,43.91
4626,23.07
4631,124.86
4661,82.04
4665,57.51
4666,44.07
4676,76.98
4680,49.65
4681,29.05
4684,123.38
4689,15.88
4704,205.64
4716,276.07
4732,28.42
4733,183.98
4751,23.28
4755,15.31
4768,71.71
4887,29.83
4901,65.66
4902,25.44
4911,102.36
4912,28.18
4922,116.29
4927,20.5
4967,193.14
4980,111.59
5016,154.17
5019,60.79
5020,40.66
5021,120.31
5076,60.18
5101,189.0
5105,106.07
5108,71.43
5110,42.82
5201,117.86
5214,120.14
5232,52.54
5233,95.51
5301,106.04
5332,129.6
5333,162.75
5334,116.77
5344,2408.84
5393,87.31
5401,14.69
5406,34.33
5411,36.93
5444,239.21
5463,26.13
5471,82.95
5631,295.69
5706,125.96
5711,157.27
5713,377.42
5714,256.71
5801,227.16
5802,90.25
5803,241.26
5830,116.73
5831,92.05
5832,95.79
5838,213.21
5844,131.59
5901,83.8
5929,60.47
5938,17.32
5947,60.6
5991,83.5
6005,71.47
6098,581.7
6113,74.11
6134,282.55
6136,94.71
6141,72.32
6146,2269.91
6178,58.37
6268,156.57
6269,303.64
6273,2142.77
6301,206.61
6302,186.07
6305,141.77
6323,174.79
6326,80.43
6361,167.86
6367,340.74
6368,82.33
6370,172.99
6383,138.0
6417,47.11
6436,50.03
6448,123.46
6457,104.54
6460,91.64
6465,98.14
6471,24.5
6472,9.47
6473,58.44
6479,107.71
6481,229.5
6501,132.51
6503,137.38
6504,416.46
6506,137.64
6525,555.71
6526,104.19
6532,240.21
6544,37.57
6586,94.75
6592,35.0
6632,21.25
6645,183.0
6674,174.63
6701,150.4
6702,112.54
6707,241.43
6723,140.0
6724,89.79
6728,250.43
6752,181.23
6753,23.59
6754,107.95
6758,88.14
6762,106.21
6770,64.39
6806,546.97
6841,110.45
6845,28.49
6849,33.09
6856,740.71
6857,1643.93
6861,1902.15
6869,44.74
6902,29.16
6920,2083.57
6923,80.04
6925,135.21
6951,272.2
6952,76.25
6954,153.43
6963,225.57
6965,66.39
6971,101.05
6976,560.67
6981,403.38
6988,89.92
7003,163.96
7011,118.17
7012,78.2
7013,117.02
7164,33.22
7167,42.49
7180,45.82
7181,39.67
7182,93.43
7186,50.46
7189,132.4
7201,6.74
7202,41.06
7203,53.34
7211,9.96
7240,64.66
7259,45.72
7261,25.97
7267,38.03
7269,43.37
7270,51.2
7272,48.32
7276,51.16
7282,26.73
7309,356.07
7313,22.74
7337,51.92
7453,102.79
7458,32.85
7459,73.63
7476,49.63
7532,18.76
7550,348.06
7616,40.25
7649,31.54
7701,75.73
7729,720.51
7731,60.42
7733,45.43
7735,628.91
7741,551.43
7747,95.57
7751,76.29
7752,41.13
7832,169.35
7846,45.29
7867,111.62
7911,84.86
7912,64.65
7936,121.57
7951,28.55
7956,45.14
7974,267.0
7984,16.13
7988,51.29
8001,58.24
8002,125.73
8012,22.87
8015,208.21
8020,48.33
8031,117.18
8035,447.54
8053,45.67
8056,106.81
8058,112.94
8060,71.43
8086,26.49
8088,46.01
8111,35.15
8113,15.91
8129,62.57
8136,41.23
8174,18.76
8227,64.43
8233,45.86
8242,46.95
8252,38.82
8253,91.5
8267,33.14
8282,37.42
8304,92.71
8306,85.11
8308,73.78
8309,37.2
8316,86.18
8331,75.73
8334,91.73
8341,122.05
8354,173.42
8359,79.86
8377,694.34
8410,5.72
8411,244.76
8418,93.87
8424,62.56
8439,54.9
8473,84.57
8570,32.29
8572,6.86
8591,117.34
8593,18.93
8595,20.29
8601,40.86
8604,43.0
8630,148.08
8697,52.12
8725,121.31
8729,3.28
8750,44.46
8766,18.23
8795,118.1
8801,30.74
8802,84.97
8804,65.71
8830,73.57
8876,50.29
9001,46.69
9003,44.13
9005,24.99
9006,20.61
9007,29.96
9008,16.32
9009,27.36
9020,63.34
9021,47.1
9022,72.0
9023,24.18
9024,84.97
9031,67.64
9041,48.55
9042,81.08
9044,66.64
9045,50.93
9048,26.07
9064,36.4
9065,32.79
9069,38.72
9072,83.64
9076,42.37
9101,182.88
9104,195.57
9107,93.92
9142,58.28
9143,21.54
9147,118.79
9201,43.82
9202,40.52
9301,28.19
9302,62.58
9364,58.99
9401,106.53
9404,68.08
9432,3.14
9433,55.09
9434,4.49
9435,857.04
9449,91.71
9468,75.21
9501,21.62
9502,90.5
9503,85.09
9504,32.23
9505,33.66
9506,40.16
9507,76.63
9508,60.93
9509,29.98
9513,90.08
9531,145.25
9532,156.06
9533,34.23
9602,40.5
9616,65.22
9627,162.79
9684,67.36
9697,139.01
9706,104.37
9735,105.2
9744,49.09
9759,61.5
9766,648.94
9831,13.79
9843,117.32
9861,73.79
9934,55.57
9962,123.75
9983,1372.14
9984,448.06
9987,47.86
9989,49.16
