code,atr14
1332,22.36
1333,17.65
1414,18.86
1417,47.08
1605,98.71
1719,31.03
1721,132.68
1801,293.13
1802,62.66
1803,63.7
1808,49.48
1812,113.27
1820,89.98
1860,25.34
1878,49.04
1893,46.71
1911,24.68
1925,34.44
1928,48.79
1942,130.89
1944,146.8
1951,35.11
1959,128.75
1963,61.71
1969,102.59
2002,35.59
2127,11.18
2181,6.7
2201,31.07
2206,66.14
2212,84.64
2222,69.3
2229,42.14
2264,25.06
2267,44.7
2269,83.59
2282,44.19
2327,105.4
2331,26.43
2371,45.57
2413,47.29
2432,47.68
2433,32.94
2501,44.57
2502,25.93
2503,49.18
2531,89.68
2579,85.93
2587,70.5
2593,69.93
2607,105.54
2670,47.71
2768,119.56
2784,39.38
2801,39.58
2802,132.03
2809,86.29
2810,71.69
2811,41.96
285A,1017.86
2871,44.04
2875,199.23
2897,59.22
2914,124.57
3003,26.96
3038,86.75
3048,29.21
3064,56.25
3086,57.54
3088,54.82
3092,23.5
3099,38.41
3105,89.39
3107,76.45
3116,35.15
3132,140.97
3197,65.5
3231,12.83
3288,154.68
3289,20.17
3291,39.35
3349,167.07
3360,48.89
3382,33.04
3391,55.14
3397,100.14
3401,32.01
3402,24.41
3405,34.0
3407,32.72
3436,177.07
3549,158.07
3563,191.05
3591,73.2
3626,104.24
3635,34.89
3659,73.19
3697,31.49
3769,213.83
3774,72.13
3861,12.01
3923,32.25
3941,28.82
3994,231.0
4004,970.03
4005,15.41
4021,183.62
4042,42.85
4043,98.43
4045,24.71
4061,83.65
4062,757.87
4063,119.55
4091,128.43
4114,42.87
4118,100.11
4151,40.61
417A,30.76
4182,111.85
4183,59.38
4186,289.71
4188,33.1
4194,279.64
4202,25.19
4203,265.89
4204,38.25
4205,48.74
4206,66.66
4208,63.35
4272,41.07
4307,136.12
4324,70.71
4385,118.57
4401,90.46
4403,43.17
4452,56.0
4502,107.98
4503,48.24
4506,52.43
4507,65.65
4516,56.75
4519,171.0
4523,98.93
4527,67.0
4528,42.56
4536,41.22
4540,53.45
4543,54.27
4544,69.24
4568,72.93
4578,307.5
4587,34.57
4612,27.68
4613,47.86
4626,35.79
4631,113.86
4661,77.52
4665,60.21
4666,55.21
4676,79.22
4680,43.5
4681,29.16
4684,114.95
4689,15.49
4704,195.14
4716,274.64
4732,28.89
4733,165.34
4751,22.27
4755,15.75
4768,70.86
4887,29.69
4901,67.23
4902,23.49
4911,111.64
4912,27.21
4922,112.21
4927,21.0
4967,196.0
4980,110.96
5016,126.27
5019,54.02
5020,35.29
5021,114.08
5076,89.47
5101,183.5
5105,88.14
5108,66.5
5110,36.21
5201,106.86
5214,113.43
5232,49.81
5233,91.64
5301,98.93
5332,144.53
5333,159.31
5334,100.48
5344,2228.31
5393,79.47
5401,12.81
5406,32.49
5411,33.83
5444,224.34
5463,27.35
5471,66.81
5631,247.6
5706,131.93
5711,132.34
5713,345.87
5714,213.43
5801,208.78
5802,86.73
5803,215.02
5830,120.43
5831,91.32
5832,100.85
5838,205.79
5844,123.12
5901,86.89
5929,59.0
5938,19.89
5947,58.53
5991,84.39
6005,66.01
6098,557.88
6113,67.36
6134,262.95
6136,86.07
6141,65.86
6146,2213.13
6178,59.18
6268,133.07
6269,254.07
6273,2020.78
6301,236.79
6302,177.86
6305,121.21
6323,188.43
6326,75.68
6361,161.79
6367,346.32
6368,79.88
6370,142.71
6383,129.71
6417,45.72
6436,48.01
6448,105.56
6457,95.5
6460,95.92
6465,84.79
6471,22.5
6472,8.19
6473,51.38
6479,117.7
6481,202.36
6501,134.46
6503,117.97
6504,408.42
6506,132.57
6525,503.31
6526,108.36
6532,233.71
6544,39.71
6586,93.11
6592,32.18
6632,22.06
6645,165.93
6674,158.77
6701,136.43
6702,106.64
6707,229.86
6723,148.79
6724,76.71
6728,257.57
6752,164.37
6753,21.14
6754,107.07
6758,84.49
6762,126.36
6770,55.56
6806,540.72
6841,95.21
6845,28.05
6849,35.81
6856,718.57
6857,1787.5
6861,1830.55
6869,41.54
6902,27.43
6920,2289.29
6923,65.53
6925,145.07
6951,252.25
6952,64.86
6954,149.43
6963,199.29
6965,70.21
6971,115.53
6976,613.13
6981,399.39
6988,79.63
7003,146.69
7011,109.31
7012,66.35
7013,94.41
7164,36.1
7167,46.02
7180,53.54
7181,40.75
7182,93.71
7186,51.38
7189,138.82
7201,6.77
7202,37.53
7203,49.77
7211,8.69
7240,59.43
7259,40.9
7261,22.22
7267,36.48
7269,40.92
7270,47.98
7272,43.43
7276,48.94
7282,24.85
7309,321.43
7313,19.93
7337,56.36
7453,104.79
7458,33.25
7459,76.43
7476,42.86
7532,18.74
7550,337.39
7616,43.36
7649,30.32
7701,84.01
7729,736.29
7731,61.95
7733,41.0
7735,669.96
7741,590.36
7747,91.79
7751,74.5
7752,35.11
7832,157.73
7846,42.54
7867,116.34
7911,84.41
7912,66.45
7936,112.71
7951,25.79
7956,38.89
7974,214.21
7984,15.86
7988,48.82
8001,53.3
8002,116.13
8012,20.78
8015,186.34
8020,46.79
8031,108.76
8035,503.59
8053,41.72
8056,91.24
8058,102.17
8060,63.43
8086,28.52
8088,40.86
8111,35.08
8113,15.35
8129,86.65
8136,37.07
8174,19.06
8227,67.36
8233,43.25
8242,52.02
8252,35.42
8253,95.86
8267,31.82
8282,39.87
8304,93.79
8306,85.66
8308,76.4
8309,38.19
8316,89.57
8331,75.79
8334,102.27
8341,126.77
8354,194.61
8359,84.46
8377,646.85
8410,5.86
8411,260.69
8418,100.96
8424,73.66
8439,57.64
8473,77.48
8570,35.43
8572,7.7
8591,124.73
8593,20.02
8595,22.28
8601,42.43
8604,41.57
8630,155.65
8697,53.74
8725,122.13
8729,3.41
8750,46.03
8766,20.97
8795,115.64
8801,29.57
8802,80.14
8804,63.93
8830,64.68
8876,50.53
9001,47.15
9003,46.14
9005,23.25
9006,23.73
9007,30.12
9008,16.06
9009,27.63
9020,60.53
9021,48.01
9022,67.32
9023,25.6
9024,93.02
9031,66.54
9041,57.22
9042,92.16
9044,74.08
9045,52.43
9048,27.79
9064,38.74
9065,35.51
9069,41.8
9072,164.84
9076,43.25
9101,164.1
9104,195.0
9107,89.32
9142,59.15
9143,23.01
9147,109.86
9201,50.63
9202,44.86
9301,30.23
9302,60.47
9364,64.82
9401,125.82
9404,70.57
9432,2.61
9433,52.33
9434,4.29
9435,843.14
9449,83.64
9468,83.5
9501,19.59
9502,86.39
9503,81.86
9504,29.99
9505,36.97
9506,37.96
9507,78.94
9508,63.94
9509,30.32
9513,94.28
9531,150.04
9532,146.83
9533,33.37
9602,35.86
9616,70.21
9627,146.5
9684,62.66
9697,124.86
9706,106.78
9735,111.41
9744,58.84
9759,60.21
9766,693.39
9831,12.69
9843,113.37
9861,79.93
9934,53.16
9962,127.92
9983,1702.14
9984,415.97
9987,54.05
9989,50.52
