code,atr14
1332,28.64
1333,18.89
1414,18.79
1417,71.86
1605,108.57
1719,30.68
1721,118.57
1801,420.36
1802,76.39
1803,57.36
1808,52.46
1812,128.79
1820,99.57
1860,30.25
1878,52.57
1893,48.29
1911,31.18
1925,62.29
1928,47.36
1942,171.29
1944,205.71
1951,65.07
1959,186.21
1963,70.43
1969,145.0
2002,38.39
2127,12.58
2181,6.07
2201,43.5
2206,101.64
2212,82.86
2222,76.07
2229,51.07
2264,36.93
2267,63.07
2269,127.29
2282,119.64
2327,80.0
2331,22.18
2371,25.64
2413,104.57
2432,60.46
2433,41.39
2501,67.64
2502,38.14
2503,82.04
2531,61.39
2579,111.64
2587,93.43
2593,61.14
2607,145.07
2670,46.68
2768,139.79
2784,35.21
2801,55.21
2802,210.14
2809,88.64
2810,49.5
2811,44.64
285A,4914.29
2871,67.14
2875,218.21
2897,69.46
2914,135.5
3003,24.43
3038,58.29
3048,28.75
3064,54.04
3086,66.18
3088,54.36
3092,22.86
3099,119.5
3105,123.21
3107,89.5
3116,44.04
3132,152.5
3197,85.29
3231,11.49
3288,188.5
3289,20.75
3291,44.18
3349,168.57
3360,52.89
3382,38.57
3391,49.93
3397,98.36
3401,42.18
3402,43.07
3405,57.0
3407,34.43
3436,302.5
3549,96.21
3563,243.14
3591,103.21
3626,90.36
3635,40.25
3659,140.96
3697,47.31
3769,409.29
3774,94.5
3861,15.52
3923,47.29
3941,37.21
3994,369.29
4004,1049.64
4005,15.1
4021,258.0
4042,48.96
4043,134.71
4045,27.0
4061,153.86
4062,1500.0
4063,136.57
4091,148.07
4114,93.57
4118,145.79
4151,52.93
417A,33.79
4182,196.79
4183,55.29
4186,440.07
4188,29.64
4194,281.07
4202,28.43
4203,282.93
4204,38.82
4205,51.96
4206,75.36
4208,91.14
4272,37.46
4307,158.86
4324,133.64
4385,244.07
4401,162.57
4403,63.29
4452,103.14
4502,111.93
4503,65.36
4506,50.5
4507,59.21
4516,80.14
4519,166.5
4523,126.29
4527,101.07
4528,48.07
4536,58.32
4540,48.71
4543,90.21
4544,102.14
4568,82.96
4578,373.57
4587,48.66
4612,35.29
4613,59.96
4626,56.71
4631,212.21
4661,75.79
4665,91.21
4666,32.29
4676,97.64
4680,73.18
4681,46.04
4684,108.14
4689,15.69
4704,264.14
4716,236.71
4732,28.86
4733,208.64
4751,50.29
4755,30.21
4768,83.43
4887,40.43
4901,134.0
4902,26.35
4911,138.79
4912,54.07
4922,200.21
4927,31.0
4967,91.71
4980,147.75
5016,204.93
5019,37.54
5020,37.89
5021,119.0
5076,88.21
5101,349.14
5105,156.36
5108,108.14
5110,78.96
5201,132.57
5214,147.93
5232,204.0
5233,129.29
5301,77.82
5332,176.29
5333,220.79
5334,242.36
5344,3094.29
5393,116.07
5401,16.87
5406,38.82
5411,45.36
5444,338.21
5463,45.11
5471,85.93
5631,271.5
5706,2273.57
5711,320.71
5713,646.43
5714,424.29
5801,353.43
5802,123.75
5803,434.14
5830,133.57
5831,102.07
5832,88.5
5838,238.29
5844,124.14
5901,90.93
5929,72.21
5938,24.0
5947,67.79
5991,118.93
6005,94.86
6098,717.86
6113,111.71
6134,340.93
6136,121.5
6141,132.0
6146,3057.86
6178,53.68
6268,165.43
6269,545.86
6273,3402.86
6301,197.36
6302,211.93
6305,186.86
6323,228.07
6326,84.36
6361,260.0
6367,409.29
6368,601.43
6370,277.79
6383,173.21
6417,43.5
6436,59.43
6448,146.43
6457,129.71
6460,95.61
6465,119.79
6471,27.18
6472,10.01
6473,54.86
6479,134.57
6481,346.71
6501,147.43
6503,186.93
6504,567.86
6506,179.07
6525,631.43
6526,92.0
6532,276.21
6544,54.29
6586,98.79
6592,46.0
6632,26.47
6645,321.14
6674,237.0
6701,174.86
6702,108.71
6707,397.57
6723,163.57
6724,86.43
6728,428.07
6752,177.21
6753,25.99
6754,156.43
6758,106.5
6762,106.79
6770,60.64
6806,775.0
6841,175.14
6845,47.82
6849,54.68
6856,963.21
6857,1937.14
6861,2181.43
6869,76.71
6902,35.25
6920,2380.71
6923,71.71
6925,176.86
6951,381.86
6952,101.79
6954,199.57
6963,240.71
6965,107.68
6971,109.5
6976,871.29
6981,471.0
6988,83.5
7003,192.86
7011,133.5
7012,98.11
7013,111.61
7164,38.21
7167,50.89
7180,46.29
7181,50.14
7182,81.79
7186,49.86
7189,141.21
7201,10.49
7202,49.86
7203,63.57
7211,9.16
7240,48.96
7259,47.25
7261,32.61
7267,51.43
7269,56.79
7270,63.79
7272,66.79
7276,45.25
7282,140.71
7309,498.93
7313,22.68
7337,55.75
7453,126.07
7458,35.32
7459,58.36
7476,44.82
7532,27.44
7550,360.0
7616,42.46
7649,65.57
7701,96.21
7729,892.5
7731,68.11
7733,71.43
7735,621.43
7741,616.43
7747,143.07
7751,77.43
7752,39.93
7832,233.14
7846,53.39
7867,95.29
7911,236.71
7912,90.04
7936,254.21
7951,34.86
7956,52.29
7974,319.64
7984,13.76
7988,96.0
8001,51.29
8002,114.5
8012,27.82
8015,237.29
8020,57.25
8031,109.21
8035,2467.86
8053,47.68
8056,170.14
8058,103.29
8060,63.36
8086,37.64
8088,64.5
8111,60.68
8113,24.77
8129,88.5
8136,77.32
8174,41.29
8227,77.88
8233,59.36
8242,61.36
8252,46.0
8253,103.79
8267,30.43
8282,44.68
8304,87.5
8306,83.0
8308,71.57
8309,35.61
8316,151.57
8331,72.68
8334,71.39
8341,112.64
8354,210.79
8359,76.14
8377,275.71
8410,8.4
8411,215.5
8418,83.36
8424,60.5
8439,49.61
8473,86.21
8570,36.43
8572,6.22
8591,129.71
8593,24.18
8595,23.96
8601,34.75
8604,31.29
8630,151.29
8697,45.07
8725,121.71
8729,3.22
8750,43.04
8766,165.43
8795,126.93
8801,30.68
8802,82.0
8804,72.07
8830,71.36
8876,43.89
9001,44.64
9003,42.71
9005,26.57
9006,20.32
9007,31.14
9008,12.58
9009,24.86
9020,69.79
9021,60.39
9022,74.07
9023,19.36
9024,106.5
9031,59.39
9041,62.36
9042,82.29
9044,51.57
9045,49.14
9048,27.46
9064,44.96
9065,171.5
9069,50.75
9072,185.93
9076,56.86
9101,191.07
9104,217.21
9107,105.57
9142,51.21
9143,39.04
9147,174.86
9201,45.68
9202,46.5
9301,27.82
9302,68.64
9364,75.07
9401,125.43
9404,63.71
9432,3.11
9433,70.36
9434,4.31
9435,955.0
9449,132.21
9468,96.29
9501,21.77
9502,64.43
9503,62.75
9504,17.48
9505,21.62
9506,29.5
9507,41.71
9508,46.93
9509,25.46
9513,68.57
9531,103.79
9532,104.14
9533,20.71
9602,37.82
9616,101.0
9627,134.43
9684,113.14
9697,144.79
9706,148.07
9735,149.93
9744,41.21
9759,60.14
9766,704.64
9831,20.44
9843,109.89
9861,58.57
9934,57.75
9962,112.43
9983,1630.71
9984,295.93
9987,108.21
9989,60.07
