code,atr14
1332,21.25
1333,15.83
1414,18.46
1417,46.23
1605,88.21
1719,28.99
1721,145.44
1801,323.12
1802,59.44
1803,58.91
1808,45.55
1812,106.63
1820,91.5
1860,27.1
1878,49.83
1893,38.11
1911,20.86
1925,29.76
1928,43.14
1942,139.3
1944,148.59
1951,36.77
1959,134.65
1963,57.07
1969,107.05
2002,34.89
2127,9.71
2181,5.44
2201,30.23
2206,65.29
2212,77.21
2222,79.79
2229,40.04
2264,22.95
2267,40.02
2269,78.76
2282,40.89
2327,102.31
2331,23.41
2371,36.36
2413,50.18
2432,47.25
2433,27.59
2501,49.96
2502,27.96
2503,55.25
2531,100.5
2579,80.0
2587,74.93
2593,67.64
2607,103.72
2670,60.21
2768,117.96
2784,36.86
2801,43.4
2802,128.98
2809,91.79
2810,70.92
2811,39.71
285A,874.29
2871,38.44
2875,206.4
2897,49.64
2914,131.36
3003,23.18
3038,61.25
3048,31.61
3064,56.75
3086,60.36
3088,43.6
3092,23.47
3099,39.98
3105,82.96
3107,70.2
3116,30.85
3132,150.14
3197,61.5
3231,11.58
3288,135.71
3289,18.97
3291,37.14
3349,144.86
3360,41.96
3382,32.89
3391,60.43
3397,94.93
3401,31.01
3402,22.77
3405,35.07
3407,33.65
3436,175.68
3549,168.14
3563,175.82
3591,80.12
3626,94.26
3635,32.82
3659,72.76
3697,31.23
3769,230.28
3774,74.36
3861,11.56
3923,31.86
3941,29.08
3994,240.07
4004,865.39
4005,15.05
4021,195.76
4042,41.1
4043,97.15
4045,23.14
4061,75.84
4062,693.33
4063,121.45
4091,127.98
4114,44.25
4118,96.16
4151,40.64
417A,29.49
4182,105.46
4183,55.52
4186,288.21
4188,28.93
4194,235.43
4202,26.97
4203,265.03
4204,36.62
4205,47.77
4206,65.42
4208,60.0
4272,39.43
4307,137.28
4324,68.36
4385,103.5
4401,91.5
4403,44.36
4452,49.71
4502,102.94
4503,47.86
4506,48.43
4507,70.29
4516,61.23
4519,174.43
4523,103.06
4527,60.87
4528,41.57
4536,41.02
4540,52.28
4543,59.94
4544,67.8
4568,69.54
4578,266.07
4587,36.11
4612,30.71
4613,46.61
4626,43.93
4631,104.0
4661,70.28
4665,63.15
4666,61.0
4676,95.47
4680,42.34
4681,28.08
4684,110.8
4689,14.31
4704,223.36
4716,255.5
4732,25.46
4733,173.47
4751,22.31
4755,17.11
4768,76.71
4887,30.28
4901,68.67
4902,22.61
4911,110.79
4912,24.39
4922,116.29
4927,21.54
4967,207.71
4980,127.19
5016,139.24
5019,50.72
5020,31.84
5021,109.21
5076,89.07
5101,189.93
5105,78.86
5108,67.79
5110,35.93
5201,106.0
5214,121.0
5232,52.87
5233,96.11
5301,85.89
5332,155.07
5333,164.76
5334,105.08
5344,2236.09
5393,83.43
5401,13.08
5406,31.99
5411,32.13
5444,239.25
5463,27.73
5471,68.35
5631,230.19
5706,139.03
5711,132.56
5713,337.31
5714,193.86
5801,233.24
5802,92.34
5803,225.41
5830,126.34
5831,89.13
5832,101.91
5838,204.71
5844,124.33
5901,90.24
5929,56.96
5938,19.86
5947,52.23
5991,112.51
6005,60.33
6098,518.02
6113,63.72
6134,291.22
6136,83.29
6141,64.79
6146,2425.07
6178,64.32
6268,129.14
6269,218.71
6273,2144.97
6301,256.53
6302,168.57
6305,131.64
6323,209.57
6326,81.57
6361,160.43
6367,352.13
6368,88.5
6370,142.06
6383,125.71
6417,42.55
6436,51.97
6448,98.78
6457,82.52
6460,82.72
6465,80.86
6471,22.62
6472,8.42
6473,51.48
6479,119.61
6481,214.36
6501,123.85
6503,122.84
6504,466.8
6506,128.14
6525,452.22
6526,105.21
6532,238.0
6544,34.96
6586,95.6
6592,31.75
6632,22.83
6645,159.0
6674,141.2
6701,124.58
6702,95.89
6707,210.36
6723,160.14
6724,73.78
6728,255.79
6752,163.74
6753,17.56
6754,109.28
6758,77.49
6762,150.38
6770,57.88
6806,547.35
6841,99.1
6845,28.97
6849,35.44
6856,762.14
6857,1757.86
6861,1723.21
6869,44.45
6902,25.23
6920,2413.57
6923,61.68
6925,156.43
6951,268.53
6952,62.36
6954,151.36
6963,185.71
6965,76.95
6971,106.12
6976,729.14
6981,388.37
6988,83.42
7003,142.01
7011,103.23
7012,61.07
7013,85.9
7164,36.59
7167,46.13
7180,54.14
7181,38.32
7182,100.14
7186,49.33
7189,134.21
7201,6.62
7202,36.56
7203,46.56
7211,9.17
7240,59.43
7259,39.03
7261,19.38
7267,34.98
7269,41.63
7270,41.95
7272,40.39
7276,48.19
7282,26.26
7309,288.21
7313,18.6
7337,57.2
7453,102.5
7458,33.77
7459,74.28
7476,38.65
7532,15.83
7550,361.34
7616,48.71
7649,28.5
7701,90.4
7729,744.48
7731,62.23
7733,43.93
7735,666.17
7741,604.64
7747,91.71
7751,76.93
7752,36.44
7832,141.43
7846,39.36
7867,109.28
7911,80.14
7912,66.96
7936,112.07
7951,25.22
7956,38.82
7974,193.36
7984,14.81
7988,51.93
8001,49.97
8002,105.3
8012,23.61
8015,169.11
8020,43.75
8031,104.34
8035,508.77
8053,40.72
8056,79.76
8058,99.16
8060,60.36
8086,30.96
8088,39.65
8111,34.7
8113,15.37
8129,85.47
8136,35.87
8174,19.82
8227,63.5
8233,44.93
8242,51.22
8252,36.49
8253,96.93
8267,27.21
8282,44.13
8304,89.43
8306,86.35
8308,75.85
8309,39.03
8316,87.15
8331,78.02
8334,102.09
8341,120.36
8354,211.97
8359,84.16
8377,38.14
8410,5.85
8411,266.71
8418,110.47
8424,70.34
8439,52.34
8473,76.64
8570,35.82
8572,8.06
8591,117.63
8593,19.23
8595,23.81
8601,39.14
8604,38.04
8630,134.76
8697,53.28
8725,113.02
8729,3.05
8750,45.28
8766,21.3
8795,113.14
8801,28.3
8802,69.58
8804,59.29
8830,62.97
8876,49.92
9001,43.22
9003,46.49
9005,21.21
9006,23.42
9007,27.78
9008,15.35
9009,28.6
9020,55.99
9021,43.34
9022,62.92
9023,24.35
9024,87.35
9031,61.79
9041,53.52
9042,97.13
9044,75.37
9045,49.86
9048,26.93
9064,40.72
9065,32.18
9069,44.55
9072,200.09
9076,40.74
9101,161.44
9104,190.25
9107,86.05
9142,53.92
9143,23.09
9147,111.21
9201,52.79
9202,42.23
9301,28.52
9302,54.25
9364,60.41
9401,127.37
9404,65.18
9432,2.58
9433,45.89
9434,3.83
9435,890.61
9449,84.21
9468,87.36
9501,17.76
9502,74.96
9503,73.63
9504,27.36
9505,35.47
9506,35.47
9507,66.18
9508,65.06
9509,27.82
9513,88.07
9531,145.5
9532,132.27
9533,31.72
9602,31.79
9616,70.12
9627,105.07
9684,54.98
9697,125.34
9706,112.7
9735,102.23
9744,53.54
9759,57.25
9766,619.61
9831,13.41
9843,107.34
9861,83.14
9934,55.33
9962,121.89
9983,1962.14
9984,336.33
9987,54.87
9989,50.36
