code,atr14
1332,23.7
1333,17.34
1414,19.46
1417,51.62
1605,109.64
1719,30.6
1721,135.39
1801,348.15
1802,70.51
1803,82.0
1808,50.77
1812,134.53
1820,85.86
1860,27.61
1878,52.46
1893,48.34
1911,23.43
1925,224.44
1928,50.29
1942,136.84
1944,161.15
1951,36.08
1959,145.72
1963,69.75
1969,110.83
2002,37.86
2127,12.43
2181,7.84
2201,31.12
2206,69.43
2212,89.93
2222,76.09
2229,41.18
2264,27.94
2267,47.31
2269,88.63
2282,399.5
2327,110.31
2331,24.73
2371,44.21
2413,52.46
2432,57.46
2433,33.66
2501,41.89
2502,24.54
2503,49.79
2531,91.36
2579,72.71
2587,67.5
2593,70.07
2607,99.09
2670,49.57
2768,134.0
2784,36.8
2801,38.09
2802,122.6
2809,83.29
2810,63.43
2811,40.32
285A,6030.71
2871,41.03
2875,186.66
2897,60.73
2914,114.14
3003,26.5
3038,122.46
3048,33.18
3064,55.93
3086,65.14
3088,55.3
3092,22.59
3099,182.29
3105,92.36
3107,77.85
3116,39.76
3132,153.04
3197,72.5
3231,11.41
3288,154.2
3289,20.55
3291,37.01
3349,189.93
3360,51.0
3382,32.5
3391,57.07
3397,94.64
3401,38.95
3402,27.67
3405,38.61
3407,31.68
3436,178.75
3549,113.29
3563,220.84
3591,65.58
3626,101.68
3635,36.25
3659,69.18
3697,36.34
3769,243.44
3774,74.39
3861,12.33
3923,40.17
3941,28.52
3994,316.07
4004,903.57
4005,18.6
4021,180.1
4042,46.22
4043,122.68
4045,31.68
4061,94.12
4062,2319.38
4063,97.81
4091,128.65
4114,46.8
4118,111.0
4151,49.18
417A,33.21
4182,117.78
4183,58.75
4186,314.93
4188,36.03
4194,305.86
4202,24.6
4203,309.84
4204,38.56
4205,50.49
4206,71.85
4208,61.6
4272,40.99
4307,158.3
4324,76.29
4385,146.64
4401,105.38
4403,43.47
4452,58.5
4502,113.72
4503,45.85
4506,57.57
4507,57.98
4516,45.47
4519,143.86
4523,90.01
4527,68.6
4528,44.71
4536,39.16
4540,48.56
4543,50.56
4544,65.7
4568,70.06
4578,295.0
4587,32.29
4612,24.14
4613,42.76
4626,22.29
4631,129.07
4661,84.05
4665,58.96
4666,37.82
4676,74.7
4680,56.26
4681,28.42
4684,124.39
4689,15.36
4704,218.43
4716,279.64
4732,27.68
4733,183.67
4751,24.17
4755,16.11
4768,71.79
4887,27.74
4901,64.13
4902,25.12
4911,100.86
4912,29.64
4922,118.5
4927,20.5
4967,183.64
4980,95.51
5016,151.5
5019,58.93
5020,40.41
5021,115.61
5076,57.28
5101,195.21
5105,101.79
5108,77.29
5110,45.39
5201,120.93
5214,122.79
5232,402.63
5233,94.9
5301,100.54
5332,127.89
5333,168.12
5334,484.66
5344,2511.08
5393,85.76
5401,14.18
5406,34.15
5411,37.24
5444,243.88
5463,26.35
5471,80.67
5631,286.54
5706,2547.96
5711,174.64
5713,390.57
5714,271.29
5801,232.68
5802,89.47
5803,241.14
5830,120.98
5831,92.68
5832,94.85
5838,213.64
5844,131.86
5901,73.74
5929,59.53
5938,17.04
5947,61.82
5991,86.3
6005,65.07
6098,599.17
6113,74.25
6134,273.87
6136,95.36
6141,73.57
6146,2186.68
6178,61.03
6268,157.14
6269,307.36
6273,2067.95
6301,212.54
6302,193.0
6305,146.08
6323,169.43
6326,80.11
6361,173.21
6367,359.74
6368,1062.62
6370,177.74
6383,139.93
6417,46.1
6436,50.0
6448,124.16
6457,103.49
6460,89.47
6465,98.86
6471,24.09
6472,9.51
6473,58.62
6479,110.42
6481,234.29
6501,129.98
6503,140.54
6504,428.77
6506,137.36
6525,560.75
6526,101.97
6532,244.14
6544,35.61
6586,95.36
6592,35.64
6632,22.55
6645,182.86
6674,176.09
6701,153.71
6702,117.61
6707,234.14
6723,143.43
6724,86.03
6728,252.29
6752,180.76
6753,23.76
6754,108.77
6758,86.59
6762,107.87
6770,62.75
6806,555.16
6841,112.67
6845,29.01
6849,32.96
6856,741.43
6857,1631.79
6861,1948.02
6869,45.62
6902,28.13
6920,2058.57
6923,78.54
6925,133.29
6951,276.33
6952,76.5
6954,159.5
6963,229.64
6965,67.79
6971,102.29
6976,596.18
6981,410.34
6988,96.11
7003,165.25
7011,118.78
7012,78.27
7013,114.67
7164,32.47
7167,43.05
7180,45.29
7181,39.21
7182,94.5
7186,51.87
7189,136.59
7201,6.81
7202,40.95
7203,53.66
7211,9.78
7240,65.21
7259,44.93
7261,26.73
7267,39.29
7269,45.03
7270,51.69
7272,50.5
7276,51.98
7282,390.17
7309,372.14
7313,22.8
7337,52.18
7453,109.86
7458,30.97
7459,71.46
7476,54.1
7532,20.04
7550,347.6
7616,33.96
7649,31.07
7701,77.9
7729,687.63
7731,58.4
7733,45.14
7735,609.87
7741,525.0
7747,104.21
7751,78.21
7752,40.46
7832,170.51
7846,46.93
7867,105.59
7911,331.02
7912,64.3
7936,127.43
7951,27.53
7956,44.46
7974,260.71
7984,15.59
7988,253.1
8001,59.44
8002,133.33
8012,22.78
8015,208.59
8020,48.33
8031,126.71
8035,5161.4
8053,46.54
8056,104.23
8058,117.47
8060,71.57
8086,25.04
8088,46.72
8111,34.65
8113,16.66
8129,64.59
8136,43.17
8174,191.04
8227,59.71
8233,48.39
8242,47.63
8252,38.96
8253,90.0
8267,35.18
8282,35.46
8304,88.5
8306,85.6
8308,74.92
8309,37.85
8316,405.43
8331,76.1
8334,91.63
8341,122.67
8354,176.37
8359,80.75
8377,766.76
8410,5.56
8411,246.03
8418,93.08
8424,60.4
8439,56.97
8473,85.91
8570,31.5
8572,6.46
8591,120.22
8593,18.76
8595,18.93
8601,39.93
8604,41.21
8630,144.24
8697,55.64
8725,119.32
8729,3.22
8750,45.18
8766,562.12
8795,115.02
8801,30.19
8802,84.08
8804,64.64
8830,72.26
8876,47.28
9001,43.12
9003,40.03
9005,23.87
9006,21.36
9007,28.12
9008,15.7
9009,27.88
9020,62.23
9021,46.21
9022,71.62
9023,22.98
9024,84.86
9031,60.89
9041,48.44
9042,81.01
9044,61.11
9045,46.14
9048,25.18
9064,37.15
9065,553.52
9069,38.22
9072,82.8
9076,40.11
9101,199.59
9104,216.21
9107,99.92
9142,58.05
9143,21.6
9147,118.21
9201,42.69
9202,39.32
9301,25.91
9302,59.05
9364,54.65
9401,101.05
9404,63.85
9432,3.11
9433,54.79
9434,4.29
9435,830.45
9449,94.57
9468,75.0
9501,21.85
9502,87.69
9503,83.35
9504,30.77
9505,33.03
9506,39.44
9507,78.6
9508,63.84
9509,30.09
9513,90.47
9531,149.81
9532,159.35
9533,35.46
9602,43.79
9616,67.24
9627,160.0
9684,69.18
9697,140.12
9706,105.23
9735,104.14
9744,47.95
9759,57.71
9766,643.74
9831,13.12
9843,124.57
9861,75.14
9934,56.02
9962,125.49
9983,1422.14
9984,460.81
9987,275.75
9989,49.3
