code,atr14
1332,22.11
1333,17.65
1414,18.32
1417,47.08
1605,98.71
1719,30.67
1721,129.96
1801,293.13
1802,62.66
1803,63.7
1808,49.48
1812,113.27
1820,89.98
1860,24.91
1878,49.04
1893,46.14
1911,24.68
1925,34.44
1928,48.79
1942,130.89
1944,145.15
1951,34.22
1959,128.75
1963,61.54
1969,102.59
2002,35.26
2127,11.18
2181,6.7
2201,30.36
2206,66.14
2212,84.64
2222,69.12
2229,41.14
2264,24.88
2267,44.7
2269,81.02
2282,44.19
2327,102.55
2331,26.22
2371,45.43
2413,47.04
2432,47.21
2433,32.23
2501,43.36
2502,25.29
2503,48.57
2531,89.68
2579,85.21
2587,69.29
2593,69.0
2607,102.69
2670,47.21
2768,119.49
2784,39.31
2801,37.65
2802,130.46
2809,84.5
2810,68.26
2811,41.61
285A,1017.86
2871,43.04
2875,186.73
2897,58.0
2914,122.86
3003,26.79
3038,86.75
3048,29.21
3064,54.71
3086,57.36
3088,54.21
3092,23.43
3099,37.01
3105,89.39
3107,76.45
3116,34.9
3132,139.47
3197,64.86
3231,12.73
3288,152.54
3289,20.03
3291,39.35
3349,161.79
3360,48.79
3382,32.79
3391,51.71
3397,100.0
3401,32.01
3402,24.08
3405,33.61
3407,32.25
3436,177.07
3549,158.07
3563,188.77
3591,72.98
3626,104.24
3635,34.25
3659,73.19
3697,31.49
3769,212.33
3774,71.56
3861,11.88
3923,31.86
3941,28.82
3994,231.0
4004,955.74
4005,15.35
4021,180.7
4042,42.85
4043,98.43
4045,23.93
4061,83.01
4062,757.87
4063,119.41
4091,122.71
4114,42.3
4118,98.75
4151,40.61
417A,30.76
4182,109.06
4183,58.06
4186,286.5
4188,32.95
4194,279.64
4202,24.83
4203,265.89
4204,37.93
4205,48.27
4206,64.44
4208,63.35
4272,41.07
4307,136.12
4324,70.71
4385,118.57
4401,88.67
4403,43.03
4452,55.21
4502,107.98
4503,48.14
4506,51.68
4507,57.72
4516,56.54
4519,171.0
4523,97.15
4527,66.86
4528,42.42
4536,41.18
4540,53.24
4543,53.42
4544,68.17
4568,72.04
4578,306.79
4587,34.04
4612,25.96
4613,47.86
4626,34.86
4631,113.86
4661,77.52
4665,60.13
4666,54.46
4676,79.22
4680,43.5
4681,29.16
4684,114.95
4689,15.47
4704,194.93
4716,274.64
4732,28.07
4733,163.2
4751,22.27
4755,15.75
4768,70.86
4887,29.58
4901,67.23
4902,23.43
4911,111.64
4912,26.86
4922,112.21
4927,20.82
4967,196.0
4980,110.82
5016,125.85
5019,53.69
5020,35.29
5021,113.65
5076,89.47
5101,182.36
5105,87.86
5108,66.0
5110,36.0
5201,105.79
5214,113.14
5232,49.53
5233,91.64
5301,97.21
5332,143.6
5333,158.52
5334,99.91
5344,2228.31
5393,77.69
5401,12.6
5406,32.49
5411,33.65
5444,217.91
5463,27.28
5471,66.56
5631,247.6
5706,129.57
5711,132.34
5713,344.59
5714,213.43
5801,207.49
5802,86.73
5803,215.02
5830,120.43
5831,91.32
5832,100.28
5838,205.79
5844,123.12
5901,86.89
5929,59.0
5938,19.71
5947,57.74
5991,83.82
6005,64.79
6098,555.74
6113,67.36
6134,258.66
6136,85.0
6141,65.86
6146,2175.27
6178,59.11
6268,133.07
6269,254.07
6273,2020.78
6301,236.79
6302,173.43
6305,121.21
6323,188.43
6326,72.29
6361,161.64
6367,346.32
6368,79.88
6370,142.71
6383,128.0
6417,45.51
6436,48.01
6448,105.56
6457,92.36
6460,95.92
6465,83.5
6471,22.5
6472,8.19
6473,51.38
6479,117.7
6481,199.64
6501,134.46
6503,117.97
6504,406.28
6506,130.71
6525,503.31
6526,108.36
6532,233.71
6544,39.29
6586,93.11
6592,31.82
6632,22.06
6645,164.21
6674,149.41
6701,136.43
6702,106.64
6707,228.79
6723,148.43
6724,76.71
6728,257.29
6752,163.23
6753,21.14
6754,103.57
6758,84.06
6762,126.36
6770,55.48
6806,531.79
6841,95.21
6845,28.05
6849,35.56
6856,675.71
6857,1787.5
6861,1830.55
6869,41.29
6902,27.07
6920,2289.29
6923,65.53
6925,144.07
6951,244.11
6952,63.96
6954,149.43
6963,199.29
6965,69.21
6971,115.53
6976,613.13
6981,399.39
6988,79.63
7003,145.26
7011,109.31
7012,66.02
7013,94.16
7164,35.63
7167,45.69
7180,52.76
7181,40.75
7182,93.71
7186,51.38
7189,137.75
7201,6.77
7202,37.25
7203,49.56
7211,8.57
7240,59.43
7259,40.36
7261,22.22
7267,35.87
7269,40.85
7270,47.98
7272,43.29
7276,48.94
7282,24.85
7309,321.43
7313,19.93
7337,55.82
7453,103.29
7458,32.9
7459,76.43
7476,42.86
7532,18.39
7550,337.39
7616,43.36
7649,30.21
7701,82.44
7729,735.22
7731,61.95
7733,40.71
7735,669.96
7741,590.36
7747,90.5
7751,74.5
7752,35.11
7832,157.73
7846,42.46
7867,116.34
7911,82.98
7912,66.45
7936,109.43
7951,25.79
7956,38.89
7974,208.14
7984,15.86
7988,48.28
8001,53.3
8002,113.78
8012,20.39
8015,186.34
8020,46.79
8031,108.26
8035,501.8
8053,41.72
8056,91.24
8058,102.02
8060,63.29
8086,28.34
8088,40.86
8111,35.08
8113,14.86
8129,86.08
8136,37.07
8174,19.0
8227,67.0
8233,41.54
8242,50.55
8252,35.06
8253,95.0
8267,31.82
8282,39.87
8304,93.79
8306,84.16
8308,72.8
8309,38.19
8316,87.86
8331,75.47
8334,101.98
8341,126.2
8354,193.89
8359,84.46
8377,646.48
8410,5.84
8411,255.91
8418,100.6
8424,73.66
8439,56.96
8473,77.41
8570,35.29
8572,7.7
8591,124.02
8593,19.66
8595,22.18
8601,40.71
8604,41.46
8630,151.58
8697,52.85
8725,119.2
8729,3.39
8750,45.75
8766,20.73
8795,115.64
8801,29.53
8802,78.28
8804,63.14
8830,64.68
8876,49.28
9001,47.15
9003,45.82
9005,23.25
9006,23.73
9007,30.02
9008,16.02
9009,26.88
9020,60.53
9021,47.65
9022,66.39
9023,25.24
9024,93.02
9031,66.54
9041,57.22
9042,92.16
9044,74.08
9045,52.43
9048,27.79
9064,38.74
9065,35.05
9069,40.9
9072,161.62
9076,41.71
9101,163.17
9104,194.36
9107,89.32
9142,59.15
9143,22.72
9147,109.64
9201,50.63
9202,44.86
9301,30.23
9302,60.4
9364,64.82
9401,123.68
9404,70.57
9432,2.6
9433,52.12
9434,4.29
9435,839.57
9449,83.64
9468,81.79
9501,19.59
9502,86.03
9503,81.47
9504,29.95
9505,36.62
9506,37.96
9507,78.94
9508,62.46
9509,30.03
9513,93.71
9531,150.04
9532,146.83
9533,33.37
9602,35.86
9616,70.21
9627,145.5
9684,61.44
9697,124.86
9706,105.42
9735,109.69
9744,58.84
9759,60.21
9766,673.39
9831,12.25
9843,113.37
9861,79.93
9934,53.16
9962,127.57
9983,1668.57
9984,415.97
9987,54.05
9989,50.45
