code,atr14
1332,24.04
1333,17.64
1414,19.46
1417,52.29
1605,109.64
1719,31.29
1721,137.0
1801,353.57
1802,71.61
1803,83.46
1808,51.71
1812,136.57
1820,87.57
1860,28.18
1878,53.79
1893,49.18
1911,23.43
1925,74.79
1928,50.29
1942,138.43
1944,164.0
1951,36.64
1959,147.71
1963,69.75
1969,112.29
2002,38.46
2127,12.71
2181,8.02
2201,31.57
2206,69.43
2212,89.93
2222,76.39
2229,41.18
2264,28.25
2267,47.93
2269,89.79
2282,115.36
2327,111.57
2331,25.07
2371,44.21
2413,52.46
2432,57.46
2433,34.07
2501,41.89
2502,24.54
2503,49.79
2531,91.36
2579,72.71
2587,67.5
2593,70.07
2607,99.79
2670,49.57
2768,136.14
2784,37.43
2801,38.32
2802,123.21
2809,83.29
2810,64.21
2811,40.32
285A,3511.43
2871,41.5
2875,188.21
2897,61.46
2914,114.14
3003,26.5
3038,122.46
3048,33.18
3064,55.93
3086,65.14
3088,55.93
3092,23.0
3099,69.57
3105,92.36
3107,79.0
3116,40.54
3132,154.5
3197,72.5
3231,11.69
3288,156.36
3289,20.96
3291,37.79
3349,189.93
3360,51.0
3382,32.5
3391,57.07
3397,94.64
3401,39.54
3402,27.96
3405,38.61
3407,32.11
3436,178.75
3549,113.29
3563,221.71
3591,66.43
3626,102.86
3635,36.25
3659,80.0
3697,36.34
3769,248.21
3774,74.86
3861,12.59
3923,40.17
3941,29.0
3994,316.07
4004,903.57
4005,18.86
4021,181.64
4042,47.11
4043,124.5
4045,31.68
4061,95.57
4062,1546.79
4063,98.14
4091,129.43
4114,48.11
4118,112.93
4151,49.18
417A,33.5
4182,119.5
4183,59.82
4186,314.93
4188,36.54
4194,305.86
4202,25.21
4203,312.14
4204,39.18
4205,51.32
4206,73.07
4208,63.07
4272,41.64
4307,159.64
4324,76.29
4385,146.64
4401,106.93
4403,44.07
4452,58.5
4502,115.71
4503,46.64
4506,57.57
4507,58.75
4516,46.29
4519,143.86
4523,91.5
4527,69.21
4528,45.46
4536,39.64
4540,49.57
4543,50.96
4544,66.86
4568,71.32
4578,295.0
4587,32.29
4612,24.14
4613,43.64
4626,22.29
4631,129.07
4661,84.29
4665,59.71
4666,37.82
4676,76.57
4680,56.46
4681,28.71
4684,125.57
4689,15.36
4704,218.43
4716,279.64
4732,28.11
4733,185.14
4751,24.57
4755,16.11
4768,71.79
4887,28.21
4901,64.86
4902,25.46
4911,100.86
4912,29.64
4922,118.5
4927,20.5
4967,183.64
4980,96.54
5016,151.93
5019,59.57
5020,40.89
5021,117.57
5076,58.61
5101,195.21
5105,101.79
5108,77.29
5110,45.39
5201,120.93
5214,122.79
5232,148.71
5233,96.29
5301,100.54
5332,129.21
5333,169.79
5334,237.79
5344,2513.57
5393,86.64
5401,14.43
5406,34.82
5411,38.07
5444,247.86
5463,26.75
5471,81.46
5631,288.36
5706,1288.21
5711,176.64
5713,394.86
5714,271.29
5801,233.36
5802,90.25
5803,242.07
5830,122.21
5831,94.07
5832,96.14
5838,213.64
5844,133.21
5901,75.29
5929,60.79
5938,17.5
5947,62.79
5991,87.14
6005,65.71
6098,599.64
6113,75.21
6134,277.43
6136,95.36
6141,73.57
6146,2193.57
6178,61.75
6268,157.14
6269,307.36
6273,2082.86
6301,215.29
6302,193.0
6305,148.43
6323,169.43
6326,80.11
6361,173.21
6367,362.86
6368,407.5
6370,179.29
6383,139.93
6417,47.21
6436,50.71
6448,125.5
6457,105.29
6460,90.21
6465,98.86
6471,24.46
6472,9.67
6473,59.61
6479,111.36
6481,234.29
6501,130.64
6503,141.36
6504,432.14
6506,137.36
6525,562.71
6526,103.18
6532,244.14
6544,35.61
6586,96.79
6592,35.64
6632,22.77
6645,182.86
6674,177.07
6701,154.36
6702,118.36
6707,234.14
6723,143.43
6724,87.11
6728,252.29
6752,181.86
6753,23.76
6754,109.57
6758,87.0
6762,108.61
6770,63.68
6806,561.07
6841,113.79
6845,29.64
6849,33.29
6856,741.43
6857,1631.79
6861,1948.02
6869,46.11
6902,28.68
6920,2058.57
6923,79.79
6925,133.29
6951,278.71
6952,76.5
6954,159.5
6963,229.64
6965,68.36
6971,103.07
6976,599.14
6981,412.14
6988,97.0
7003,166.43
7011,119.21
7012,78.93
7013,115.14
7164,33.0
7167,43.61
7180,45.79
7181,39.75
7182,94.5
7186,52.5
7189,138.5
7201,6.81
7202,41.86
7203,54.57
7211,9.91
7240,66.75
7259,45.64
7261,27.32
7267,40.11
7269,45.61
7270,52.86
7272,50.5
7276,52.54
7282,127.93
7309,372.14
7313,23.43
7337,52.93
7453,109.86
7458,31.54
7459,72.5
7476,54.82
7532,20.04
7550,348.93
7616,33.96
7649,31.07
7701,78.43
7729,693.57
7731,58.71
7733,45.14
7735,612.5
7741,525.0
7747,104.21
7751,78.21
7752,41.0
7832,171.29
7846,46.93
7867,106.5
7911,169.71
7912,64.71
7936,127.43
7951,27.82
7956,44.46
7974,260.71
7984,15.59
7988,95.71
8001,60.04
8002,134.93
8012,23.04
8015,210.36
8020,49.07
8031,128.5
8035,2212.14
8053,47.07
8056,105.79
8058,119.0
8060,71.57
8086,25.25
8088,47.25
8111,35.21
8113,16.66
8129,66.07
8136,43.46
8174,58.64
8227,59.71
8233,48.39
8242,48.04
8252,39.89
8253,90.0
8267,35.18
8282,35.93
8304,88.5
8306,86.71
8308,75.46
8309,38.36
8316,178.79
8331,76.96
8334,92.64
8341,124.21
8354,178.71
8359,81.61
8377,280.21
8410,5.65
8411,248.14
8418,94.36
8424,61.57
8439,57.93
8473,86.71
8570,31.5
8572,6.61
8591,122.36
8593,19.11
8595,19.5
8601,39.93
8604,41.21
8630,146.36
8697,56.79
8725,121.36
8729,3.3
8750,46.04
8766,203.79
8795,116.93
8801,30.57
8802,84.64
8804,64.64
8830,72.86
8876,48.0
9001,43.68
9003,40.57
9005,24.11
9006,21.68
9007,28.61
9008,15.92
9009,28.11
9020,63.0
9021,46.96
9022,71.93
9023,23.32
9024,85.36
9031,61.79
9041,48.93
9042,81.93
9044,61.64
9045,46.14
9048,25.18
9064,37.57
9065,139.07
9069,38.68
9072,83.71
9076,40.75
9101,202.93
9104,219.29
9107,101.71
9142,59.07
9143,22.0
9147,118.21
9201,43.36
9202,39.71
9301,26.29
9302,59.5
9364,55.79
9401,101.93
9404,64.07
9432,3.16
9433,55.64
9434,4.37
9435,835.0
9449,94.57
9468,75.0
9501,21.85
9502,88.79
9503,84.57
9504,31.21
9505,33.39
9506,40.04
9507,79.61
9508,64.61
9509,30.54
9513,91.57
9531,151.29
9532,161.14
9533,35.79
9602,43.79
9616,67.71
9627,160.0
9684,69.61
9697,140.86
9706,106.14
9735,105.14
9744,49.14
9759,57.71
9766,647.14
9831,13.12
9843,125.25
9861,75.14
9934,56.75
9962,126.5
9983,1422.14
9984,461.21
9987,95.71
9989,50.29
