code,atr14
1332,29.32
1333,21.61
1414,19.21
1417,73.14
1605,111.14
1719,33.18
1721,116.57
1801,422.5
1802,75.68
1803,57.96
1808,52.57
1812,147.21
1820,99.57
1860,30.46
1878,55.43
1893,48.54
1911,31.64
1925,65.79
1928,47.93
1942,180.86
1944,210.93
1951,64.04
1959,189.79
1963,71.71
1969,157.0
2002,38.5
2127,11.86
2181,6.21
2201,46.04
2206,104.07
2212,96.93
2222,83.86
2229,53.79
2264,38.39
2267,66.18
2269,120.71
2282,129.43
2327,81.93
2331,23.61
2371,25.0
2413,105.54
2432,58.64
2433,49.57
2501,69.71
2502,39.64
2503,83.75
2531,62.21
2579,116.21
2587,96.36
2593,62.71
2607,146.36
2670,47.86
2768,146.36
2784,42.25
2801,56.07
2802,227.43
2809,90.71
2810,56.14
2811,44.32
285A,5143.57
2871,66.36
2875,234.29
2897,81.79
2914,144.71
3003,25.43
3038,60.25
3048,29.61
3064,58.71
3086,66.46
3088,54.46
3092,24.54
3099,120.79
3105,129.82
3107,96.93
3116,44.82
3132,174.0
3197,86.0
3231,10.99
3288,191.21
3289,20.71
3291,43.93
3349,177.21
3360,55.93
3382,40.46
3391,49.96
3397,100.14
3401,44.54
3402,44.79
3405,58.64
3407,37.54
3436,310.14
3549,99.43
3563,251.43
3591,106.79
3626,95.64
3635,40.61
3659,143.68
3697,47.14
3769,413.43
3774,94.43
3861,16.91
3923,46.93
3941,44.96
3994,358.86
4004,1108.21
4005,15.99
4021,262.29
4042,49.57
4043,142.21
4045,27.46
4061,173.14
4062,1729.29
4063,147.57
4091,156.29
4114,93.18
4118,151.0
4151,54.39
417A,34.39
4182,219.64
4183,62.43
4186,476.57
4188,31.86
4194,273.86
4202,29.07
4203,303.71
4204,40.71
4205,57.93
4206,90.71
4208,95.86
4272,42.43
4307,165.36
4324,134.21
4385,244.71
4401,171.14
4403,80.39
4452,105.57
4502,109.64
4503,65.21
4506,49.29
4507,60.79
4516,77.71
4519,163.07
4523,131.21
4527,100.5
4528,47.86
4536,58.36
4540,50.5
4543,92.29
4544,99.57
4568,81.36
4578,388.93
4587,47.2
4612,36.0
4613,61.04
4626,68.5
4631,223.93
4661,79.21
4665,94.21
4666,33.29
4676,108.0
4680,74.82
4681,46.07
4684,111.07
4689,15.01
4704,264.0
4716,244.86
4732,30.25
4733,218.86
4751,50.18
4755,30.2
4768,92.14
4887,40.5
4901,134.14
4902,26.07
4911,135.0
4912,54.32
4922,204.14
4927,32.25
4967,93.36
4980,164.39
5016,224.71
5019,37.61
5020,37.86
5021,122.93
5076,88.32
5101,349.64
5105,155.79
5108,108.43
5110,79.14
5201,144.64
5214,163.71
5232,238.57
5233,133.36
5301,82.5
5332,194.0
5333,237.57
5334,256.36
5344,3239.29
5393,125.0
5401,18.09
5406,49.29
5411,48.04
5444,352.14
5463,50.39
5471,92.21
5631,278.07
5706,2473.93
5711,308.79
5713,638.5
5714,414.71
5801,369.57
5802,137.5
5803,455.14
5830,133.57
5831,102.43
5832,90.64
5838,247.79
5844,126.57
5901,109.64
5929,78.93
5938,25.89
5947,67.29
5991,129.0
6005,94.29
6098,717.14
6113,116.96
6134,374.14
6136,140.14
6141,151.86
6146,3132.14
6178,54.54
6268,178.64
6269,546.07
6273,3455.0
6301,206.07
6302,234.14
6305,189.0
6323,235.14
6326,88.86
6361,271.71
6367,565.0
6368,682.14
6370,278.0
6383,178.93
6417,47.82
6436,60.86
6448,146.57
6457,135.93
6460,96.75
6465,125.21
6471,28.82
6472,12.04
6473,57.5
6479,149.57
6481,369.86
6501,153.71
6503,195.64
6504,630.71
6506,192.14
6525,649.86
6526,94.86
6532,274.43
6544,53.82
6586,106.93
6592,45.14
6632,31.89
6645,339.71
6674,273.5
6701,176.29
6702,111.43
6707,418.29
6723,177.57
6724,90.79
6728,470.5
6752,194.5
6753,25.9
6754,170.5
6758,109.14
6762,113.46
6770,66.54
6806,846.07
6841,214.07
6845,49.61
6849,53.54
6856,1035.0
6857,2011.43
6861,2407.86
6869,75.39
6902,36.11
6920,2470.71
6923,76.0
6925,202.5
6951,403.43
6952,100.61
6954,215.43
6963,251.71
6965,115.61
6971,115.86
6976,905.07
6981,509.57
6988,83.64
7003,208.43
7011,143.79
7012,102.79
7013,128.39
7164,37.86
7167,50.82
7180,48.14
7181,52.07
7182,85.43
7186,50.57
7189,144.86
7201,10.6
7202,49.89
7203,64.79
7211,9.64
7240,50.43
7259,49.32
7261,33.68
7267,53.25
7269,64.89
7270,76.04
7272,87.79
7276,50.0
7282,141.14
7309,513.57
7313,22.57
7337,55.82
7453,128.21
7458,35.86
7459,60.07
7476,46.46
7532,26.85
7550,358.21
7616,43.75
7649,65.39
7701,98.79
7729,954.29
7731,71.18
7733,71.43
7735,648.21
7741,682.86
7747,143.79
7751,76.93
7752,41.21
7832,228.0
7846,52.43
7867,113.86
7911,242.64
7912,90.39
7936,249.86
7951,40.14
7956,53.21
7974,316.71
7984,14.2
7988,102.5
8001,51.29
8002,119.93
8012,36.61
8015,256.71
8020,59.96
8031,113.71
8035,2559.29
8053,50.04
8056,171.36
8058,105.86
8060,64.93
8086,37.96
8088,64.46
8111,64.18
8113,26.01
8129,110.0
8136,78.89
8174,42.68
8227,77.78
8233,59.21
8242,67.89
8252,48.93
8253,100.64
8267,31.61
8282,46.36
8304,89.79
8306,86.79
8308,75.39
8309,36.75
8316,155.93
8331,73.61
8334,72.64
8341,112.93
8354,208.36
8359,79.68
8377,281.57
8410,8.52
8411,231.0
8418,84.29
8424,62.29
8439,51.07
8473,84.32
8570,36.71
8572,6.56
8591,140.57
8593,24.32
8595,25.29
8601,37.32
8604,32.25
8630,152.5
8697,49.57
8725,124.07
8729,3.28
8750,43.43
8766,160.14
8795,123.71
8801,30.96
8802,84.07
8804,72.07
8830,72.29
8876,42.68
9001,50.29
9003,43.93
9005,26.29
9006,20.39
9007,33.46
9008,13.16
9009,25.54
9020,72.79
9021,59.96
9022,77.36
9023,19.79
9024,113.43
9031,62.29
9041,64.0
9042,87.29
9044,52.64
9045,50.29
9048,28.32
9064,49.0
9065,181.43
9069,48.36
9072,181.57
9076,58.07
9101,199.5
9104,212.36
9107,111.14
9142,54.21
9143,38.96
9147,176.79
9201,49.14
9202,47.93
9301,28.96
9302,93.64
9364,78.36
9401,130.5
9404,64.79
9432,3.1
9433,73.64
9434,4.96
9435,969.29
9449,135.43
9468,95.43
9501,20.81
9502,63.68
9503,64.04
9504,17.84
9505,22.69
9506,30.14
9507,42.68
9508,49.14
9509,26.0
9513,71.57
9531,111.0
9532,107.5
9533,21.04
9602,40.75
9616,103.79
9627,140.64
9684,111.57
9697,145.36
9706,152.21
9735,156.0
9744,42.79
9759,59.43
9766,720.0
9831,20.47
9843,112.29
9861,60.71
9934,59.82
9962,128.14
9983,1714.29
9984,334.71
9987,113.5
9989,61.43
