code,atr14
1332,22.57
1333,17.79
1414,15.11
1417,61.93
1605,106.5
1719,26.54
1721,101.29
1801,382.86
1802,61.07
1803,55.75
1808,53.64
1812,119.21
1820,77.43
1860,27.18
1878,50.86
1893,41.86
1911,25.79
1925,60.36
1928,45.0
1942,152.57
1944,182.0
1951,45.64
1959,186.29
1963,72.25
1969,104.5
2002,32.5
2127,13.31
2181,4.96
2201,33.14
2206,64.93
2212,75.0
2222,60.18
2229,41.75
2264,22.11
2267,52.29
2269,82.36
2282,116.14
2327,89.86
2331,18.11
2371,30.29
2413,64.0
2432,52.61
2433,37.39
2501,37.5
2502,25.36
2503,53.96
2531,71.0
2579,96.36
2587,72.57
2593,78.25
2607,105.79
2670,44.72
2768,146.21
2784,31.32
2801,39.21
2802,161.14
2809,87.29
2810,67.5
2811,35.07
285A,3797.14
2871,40.64
2875,200.71
2897,54.89
2914,111.57
3003,26.89
3038,84.11
3048,34.05
3064,43.46
3086,83.97
3088,49.79
3092,21.82
3099,88.93
3105,83.29
3107,90.0
3116,45.96
3132,154.43
3197,71.71
3231,11.71
3288,163.0
3289,20.89
3291,39.39
3349,167.21
3360,42.36
3382,33.39
3391,55.28
3397,81.86
3401,38.54
3402,30.64
3405,42.21
3407,36.25
3436,238.43
3549,113.43
3563,219.21
3591,60.71
3626,96.07
3635,38.43
3659,82.75
3697,42.9
3769,301.71
3774,88.79
3861,13.42
3923,44.93
3941,33.96
3994,378.64
4004,821.43
4005,21.73
4021,248.14
4042,50.32
4043,117.07
4045,31.11
4061,106.71
4062,1232.14
4063,107.93
4091,142.57
4114,55.39
4118,124.07
4151,73.96
417A,32.54
4182,122.93
4183,69.68
4186,311.57
4188,36.29
4194,237.0
4202,31.0
4203,257.14
4204,40.64
4205,68.04
4206,63.07
4208,66.14
4272,39.32
4307,141.36
4324,106.64
4385,187.36
4401,114.71
4403,49.32
4452,62.86
4502,112.5
4503,48.57
4506,63.21
4507,55.96
4516,63.64
4519,122.14
4523,103.36
4527,71.11
4528,50.21
4536,46.39
4540,42.57
4543,70.54
4544,78.57
4568,78.14
4578,278.57
4587,42.57
4612,30.5
4613,40.07
4626,28.29
4631,159.93
4661,67.0
4665,64.64
4666,40.82
4676,90.29
4680,42.54
4681,32.86
4684,128.79
4689,14.95
4704,181.93
4716,232.07
4732,27.14
4733,196.93
4751,34.43
4755,20.44
4768,75.5
4887,23.71
4901,72.71
4902,20.4
4911,118.86
4912,44.36
4922,145.79
4927,20.57
4967,69.14
4980,130.36
5016,177.79
5019,39.64
5020,34.29
5021,103.71
5076,72.96
5101,256.0
5105,91.93
5108,66.71
5110,62.75
5201,132.5
5214,141.14
5232,174.86
5233,100.93
5301,67.57
5332,180.07
5333,190.07
5334,260.79
5344,2438.57
5393,106.36
5401,18.29
5406,36.64
5411,47.32
5444,371.43
5463,38.04
5471,86.29
5631,306.71
5706,1661.07
5711,334.5
5713,668.14
5714,444.14
5801,269.93
5802,90.82
5803,318.57
5830,111.43
5831,91.43
5832,84.57
5838,208.93
5844,116.14
5901,83.0
5929,68.5
5938,21.04
5947,56.29
5991,113.43
6005,72.14
6098,646.43
6113,86.79
6134,289.43
6136,114.0
6141,82.96
6146,2530.71
6178,63.04
6268,160.43
6269,401.14
6273,2436.43
6301,194.36
6302,238.43
6305,201.0
6323,173.14
6326,100.14
6361,192.14
6367,363.57
6368,523.21
6370,249.5
6383,160.07
6417,36.71
6436,55.93
6448,110.36
6457,102.64
6460,82.32
6465,82.07
6471,28.96
6472,10.31
6473,66.61
6479,110.86
6481,228.21
6501,152.36
6503,166.43
6504,497.14
6506,163.65
6525,485.5
6526,87.75
6532,237.71
6544,40.07
6586,110.64
6592,38.64
6632,24.41
6645,230.71
6674,175.07
6701,159.64
6702,110.14
6707,297.5
6723,162.71
6724,76.0
6728,259.79
6752,153.64
6753,19.1
6754,127.36
6758,90.93
6762,106.79
6770,60.75
6806,691.07
6841,156.57
6845,31.57
6849,31.54
6856,790.71
6857,1707.14
6861,2180.71
6869,50.11
6902,31.71
6920,1680.0
6923,67.0
6925,150.71
6951,238.29
6952,91.18
6954,173.71
6963,228.57
6965,79.93
6971,97.14
6976,637.43
6981,384.29
6988,90.21
7003,199.5
7011,125.29
7012,84.36
7013,111.25
7164,34.07
7167,43.86
7180,40.79
7181,40.46
7182,88.36
7186,50.14
7189,135.5
7201,11.66
7202,51.86
7203,75.79
7211,13.48
7240,57.61
7259,45.82
7261,37.14
7267,48.57
7269,58.36
7270,61.96
7272,58.82
7276,46.75
7282,146.79
7309,456.07
7313,20.0
7337,55.64
7453,122.76
7458,27.64
7459,50.57
7476,47.07
7532,25.67
7550,330.0
7616,34.07
7649,29.86
7701,77.29
7729,772.14
7731,54.96
7733,56.61
7735,528.21
7741,580.36
7747,147.57
7751,70.14
7752,33.57
7832,147.79
7846,42.25
7867,78.64
7911,192.71
7912,72.14
7936,181.0
7951,23.86
7956,44.25
7974,264.29
7984,14.91
7988,103.14
8001,51.21
8002,124.86
8012,28.82
8015,237.14
8020,48.93
8031,130.29
8035,2345.71
8053,52.57
8056,99.57
8058,122.79
8060,75.0
8086,28.57
8088,50.64
8111,40.79
8113,17.34
8129,78.0
8136,45.89
8174,58.82
8227,68.08
8233,64.28
8242,64.5
8252,40.64
8253,97.64
8267,29.23
8282,36.21
8304,81.14
8306,86.43
8308,69.32
8309,40.93
8316,160.0
8331,74.36
8334,74.5
8341,104.86
8354,186.64
8359,68.86
8377,246.93
8410,6.41
8411,217.71
8418,76.93
8424,50.93
8439,61.39
8473,100.29
8570,37.33
8572,5.44
8591,154.5
8593,17.07
8595,22.89
8601,39.25
8604,36.89
8630,133.29
8697,47.57
8725,113.36
8729,3.7
8750,40.18
8766,168.21
8795,109.5
8801,31.21
8802,74.57
8804,58.0
8830,68.79
8876,40.07
9001,41.86
9003,37.21
9005,21.64
9006,19.93
9007,27.04
9008,11.91
9009,26.0
9020,67.0
9021,48.14
9022,72.29
9023,18.32
9024,79.43
9031,55.43
9041,47.07
9042,80.21
9044,55.14
9045,43.14
9048,21.75
9064,38.07
9065,152.57
9069,42.93
9072,176.71
9076,46.82
9101,226.79
9104,240.21
9107,116.43
9142,54.79
9143,31.18
9147,136.29
9201,50.93
9202,45.93
9301,23.64
9302,54.64
9364,60.29
9401,105.43
9404,55.61
9432,2.94
9433,50.82
9434,3.67
9435,686.43
9449,112.71
9468,80.57
9501,24.8
9502,79.57
9503,96.54
9504,25.71
9505,27.54
9506,36.5
9507,62.5
9508,70.79
9509,31.18
9513,85.57
9531,122.0
9532,107.07
9533,24.0
9602,35.07
9616,88.79
9627,104.5
9684,99.07
9697,125.14
9706,132.93
9735,94.64
9744,36.57
9759,55.07
9766,607.14
9831,15.93
9843,91.32
9861,67.61
9934,65.43
9962,122.71
9983,1738.62
9984,300.36
9987,93.29
9989,54.36
