code,atr14
1332,21.72
1333,17.3
1414,19.0
1417,51.4
1605,108.57
1719,32.02
1721,134.17
1801,351.6
1802,70.07
1803,80.66
1808,48.69
1812,136.62
1820,90.53
1860,26.55
1878,51.13
1893,48.9
1911,23.79
1925,35.25
1928,50.64
1942,137.09
1944,161.58
1951,37.71
1959,148.16
1963,67.36
1969,111.45
2002,36.95
2127,12.01
2181,7.69
2201,31.51
2206,69.71
2212,92.57
2222,75.36
2229,42.57
2264,28.46
2267,47.56
2269,84.61
2282,39.6
2327,110.12
2331,25.24
2371,45.57
2413,52.75
2432,58.07
2433,34.62
2501,39.61
2502,24.25
2503,47.18
2531,80.46
2579,69.71
2587,66.43
2593,70.86
2607,99.52
2670,46.82
2768,125.44
2784,37.22
2801,36.69
2802,119.92
2809,81.0
2810,63.54
2811,41.07
285A,1140.12
2871,40.82
2875,179.99
2897,60.77
2914,110.07
3003,26.46
3038,104.82
3048,32.04
3064,53.75
3086,60.07
3088,55.37
3092,22.22
3099,32.48
3105,95.11
3107,77.02
3116,39.98
3132,152.45
3197,69.79
3231,11.44
3288,149.19
3289,20.65
3291,36.82
3349,175.93
3360,50.57
3382,32.57
3391,54.79
3397,96.5
3401,36.27
3402,25.74
3405,35.75
3407,30.15
3436,175.04
3549,114.29
3563,209.7
3591,69.21
3626,104.6
3635,35.61
3659,70.58
3697,34.54
3769,232.75
3774,74.21
3861,11.9
3923,38.42
3941,28.24
3994,278.36
4004,924.64
4005,17.36
4021,176.84
4042,44.58
4043,122.48
4045,28.57
4061,92.29
4062,762.23
4063,97.97
4091,122.93
4114,44.58
4118,103.42
4151,48.04
417A,32.21
4182,117.07
4183,54.77
4186,305.5
4188,34.26
4194,299.36
4202,22.42
4203,311.13
4204,37.05
4205,51.67
4206,70.65
4208,57.64
4272,38.72
4307,155.6
4324,77.0
4385,137.93
4401,100.08
4403,42.97
4452,56.57
4502,102.83
4503,44.07
4506,55.68
4507,55.14
4516,45.05
4519,150.71
4523,85.73
4527,61.08
4528,43.86
4536,38.38
4540,49.18
4543,50.09
4544,63.59
4568,69.8
4578,307.5
4587,30.68
4612,24.64
4613,43.91
4626,23.07
4631,123.86
4661,81.96
4665,57.51
4666,44.07
4676,74.69
4680,49.65
4681,28.9
4684,123.38
4689,15.84
4704,203.57
4716,275.64
4732,27.92
4733,183.98
4751,22.89
4755,15.08
4768,70.5
4887,29.83
4901,64.34
4902,24.97
4911,102.36
4912,28.18
4922,115.64
4927,20.5
4967,193.14
4980,111.59
5016,150.17
5019,60.29
5020,40.41
5021,117.88
5076,56.93
5101,188.71
5105,103.57
5108,71.0
5110,42.82
5201,114.5
5214,120.36
5232,51.39
5233,94.94
5301,104.18
5332,129.6
5333,162.04
5334,116.48
5344,2408.84
5393,86.09
5401,14.29
5406,34.19
5411,35.93
5444,236.71
5463,25.81
5471,82.95
5631,291.83
5706,125.96
5711,157.27
5713,371.92
5714,253.86
5801,225.66
5802,89.04
5803,237.97
5830,116.73
5831,92.05
5832,94.37
5838,211.07
5844,131.59
5901,74.37
5929,60.47
5938,17.11
5947,59.6
5991,83.28
6005,67.54
6098,579.2
6113,72.83
6134,275.33
6136,94.36
6141,71.57
6146,2269.91
6178,58.37
6268,156.57
6269,303.64
6273,2088.48
6301,206.61
6302,186.07
6305,140.77
6323,172.21
6326,80.43
6361,167.86
6367,340.74
6368,82.33
6370,172.99
6383,138.0
6417,46.9
6436,50.03
6448,123.32
6457,104.54
6460,91.64
6465,98.14
6471,24.07
6472,9.36
6473,57.69
6479,106.85
6481,229.36
6501,130.51
6503,136.59
6504,416.46
6506,134.57
6525,555.71
6526,103.01
6532,240.21
6544,36.75
6586,94.11
6592,34.79
6632,21.25
6645,180.5
6674,174.63
6701,150.4
6702,112.54
6707,241.43
6723,140.0
6724,88.79
6728,248.29
6752,179.02
6753,23.27
6754,107.95
6758,88.14
6762,103.81
6770,63.22
6806,540.54
6841,110.45
6845,28.49
6849,33.09
6856,734.29
6857,1642.5
6861,1887.86
6869,44.28
6902,28.3
6920,2085.0
6923,80.04
6925,132.14
6951,268.63
6952,75.29
6954,151.93
6963,225.57
6965,66.39
6971,101.05
6976,557.89
6981,399.73
6988,89.85
7003,162.96
7011,117.96
7012,78.2
7013,116.77
7164,33.08
7167,42.49
7180,45.61
7181,39.67
7182,93.43
7186,50.46
7189,132.18
7201,6.74
7202,39.81
7203,52.48
7211,9.7
7240,65.21
7259,44.9
7261,25.93
7267,37.68
7269,43.37
7270,50.63
7272,48.14
7276,50.88
7282,26.73
7309,353.93
7313,22.2
7337,51.92
7453,102.21
7458,32.63
7459,72.81
7476,49.63
7532,18.76
7550,339.85
7616,40.25
7649,31.43
7701,75.16
7729,712.29
7731,58.35
7733,45.21
7735,621.77
7741,538.21
7747,95.57
7751,76.29
7752,41.13
7832,168.06
7846,45.07
7867,111.26
7911,84.86
7912,63.79
7936,121.57
7951,27.94
7956,45.14
7974,266.5
7984,15.99
7988,51.29
8001,57.67
8002,122.94
8012,22.4
8015,199.78
8020,47.26
8031,113.61
8035,447.54
8053,43.81
8056,106.81
8058,109.65
8060,71.43
8086,25.38
8088,44.83
8111,34.58
8113,15.86
8129,62.5
8136,40.87
8174,18.74
8227,62.0
8233,45.86
8242,46.95
8252,38.57
8253,90.5
8267,33.14
8282,36.96
8304,92.29
8306,84.53
8308,73.78
8309,37.16
8316,85.33
8331,75.73
8334,91.73
8341,121.26
8354,173.42
8359,79.86
8377,693.69
8410,5.55
8411,243.76
8418,93.87
8424,60.78
8439,53.58
8473,83.72
8570,32.25
8572,6.7
8591,112.48
8593,18.29
8595,20.29
8601,40.71
8604,42.46
8630,146.86
8697,51.26
8725,117.17
8729,3.24
8750,44.32
8766,18.23
8795,118.1
8801,30.53
8802,84.26
8804,65.43
8830,72.79
8876,50.29
9001,44.62
9003,43.52
9005,24.45
9006,20.61
9007,29.36
9008,16.0
9009,27.36
9020,61.48
9021,45.85
9022,72.0
9023,23.14
9024,84.97
9031,65.46
9041,48.27
9042,79.79
9044,65.29
9045,48.57
9048,26.04
9064,36.04
9065,32.79
9069,38.14
9072,81.35
9076,41.91
9101,181.38
9104,194.57
9107,92.85
9142,56.85
9143,20.97
9147,116.86
9201,42.03
9202,38.99
9301,26.9
9302,61.43
9364,56.57
9401,106.53
9404,68.08
9432,3.13
9433,54.12
9434,4.42
9435,857.04
9449,91.71
9468,75.21
9501,21.62
9502,89.32
9503,83.76
9504,31.94
9505,32.88
9506,39.91
9507,76.6
9508,63.84
9509,29.48
9513,87.94
9531,145.25
9532,155.64
9533,34.23
9602,40.5
9616,65.22
9627,162.79
9684,67.04
9697,139.01
9706,101.3
9735,105.2
9744,48.59
9759,61.5
9766,640.01
9831,13.79
9843,117.32
9861,73.79
9934,55.57
9962,123.39
9983,1339.29
9984,441.85
9987,50.0
9989,49.16
