code,atr14
1332,21.57
1333,17.11
1414,18.64
1417,42.87
1605,93.29
1719,29.56
1721,132.09
1801,286.48
1802,61.04
1803,62.97
1808,47.1
1812,110.28
1820,87.48
1860,25.67
1878,47.8
1893,44.88
1911,22.64
1925,32.15
1928,45.43
1942,123.8
1944,138.19
1951,34.61
1959,120.55
1963,56.71
1969,98.19
2002,35.8
2127,10.29
2181,6.21
2201,31.34
2206,65.07
2212,84.07
2222,69.88
2229,41.96
2264,23.52
2267,43.6
2269,80.46
2282,41.39
2327,106.81
2331,25.6
2371,39.14
2413,49.0
2432,47.5
2433,31.61
2501,46.04
2502,25.75
2503,50.18
2531,98.89
2579,86.07
2587,69.07
2593,68.64
2607,104.66
2670,49.54
2768,112.86
2784,38.7
2801,40.09
2802,131.15
2809,84.64
2810,72.03
2811,40.93
285A,949.88
2871,42.55
2875,195.7
2897,56.85
2914,113.21
3003,25.61
3038,81.25
3048,28.75
3064,56.86
3086,59.46
3088,51.27
3092,23.7
3099,42.39
3105,86.71
3107,75.06
3116,31.22
3132,129.3
3197,63.36
3231,12.66
3288,150.9
3289,19.63
3291,37.21
3349,160.57
3360,45.79
3382,30.93
3391,54.64
3397,99.07
3401,32.05
3402,23.89
3405,34.79
3407,31.14
3436,171.0
3549,167.79
3563,188.54
3591,72.2
3626,106.89
3635,34.68
3659,76.44
3697,32.44
3769,213.92
3774,69.81
3861,11.39
3923,32.96
3941,26.03
3994,241.64
4004,897.17
4005,15.51
4021,184.99
4042,41.66
4043,95.99
4045,22.75
4061,84.75
4062,722.95
4063,121.23
4091,127.13
4114,41.89
4118,98.64
4151,40.14
417A,29.67
4182,111.07
4183,57.46
4186,279.57
4188,30.97
4194,229.79
4202,25.64
4203,270.61
4204,36.42
4205,47.4
4206,66.27
4208,60.16
4272,39.45
4307,137.56
4324,72.36
4385,115.36
4401,88.82
4403,40.6
4452,52.71
4502,107.13
4503,46.35
4506,52.32
4507,69.9
4516,56.24
4519,168.79
4523,97.37
4527,66.49
4528,40.91
4536,41.25
4540,51.4
4543,55.16
4544,74.71
4568,68.78
4578,298.93
4587,34.82
4612,26.68
4613,46.08
4626,37.71
4631,109.29
4661,72.94
4665,62.33
4666,55.43
4676,85.83
4680,42.19
4681,28.12
4684,115.02
4689,14.44
4704,193.93
4716,276.71
4732,27.78
4733,176.5
4751,22.22
4755,15.76
4768,67.64
4887,30.65
4901,68.41
4902,23.26
4911,110.43
4912,26.61
4922,108.64
4927,20.68
4967,201.57
4980,118.08
5016,127.24
5019,53.48
5020,34.57
5021,113.69
5076,88.88
5101,174.79
5105,82.64
5108,64.21
5110,34.32
5201,102.93
5214,119.21
5232,49.41
5233,93.34
5301,93.0
5332,141.95
5333,155.84
5334,99.32
5344,2234.22
5393,77.63
5401,12.58
5406,31.34
5411,32.3
5444,234.41
5463,25.02
5471,67.38
5631,235.62
5706,130.73
5711,118.73
5713,305.21
5714,186.86
5801,210.46
5802,88.4
5803,217.1
5830,115.26
5831,86.61
5832,100.18
5838,201.36
5844,119.18
5901,84.46
5929,57.64
5938,19.01
5947,55.82
5991,100.73
6005,61.93
6098,555.41
6113,63.81
6134,267.26
6136,81.64
6141,63.64
6146,2202.36
6178,54.97
6268,123.86
6269,237.57
6273,1839.72
6301,224.23
6302,162.71
6305,117.86
6323,175.07
6326,72.18
6361,155.29
6367,351.53
6368,80.75
6370,134.51
6383,119.36
6417,42.67
6436,45.02
6448,101.01
6457,89.04
6460,90.2
6465,82.79
6471,21.71
6472,7.79
6473,49.68
6479,114.42
6481,196.43
6501,130.23
6503,115.11
6504,390.14
6506,126.93
6525,471.36
6526,105.76
6532,232.43
6544,38.86
6586,85.12
6592,33.18
6632,22.01
6645,156.86
6674,152.64
6701,138.6
6702,109.38
6707,213.71
6723,146.79
6724,73.53
6728,240.93
6752,161.74
6753,20.26
6754,105.0
6758,83.65
6762,135.75
6770,55.39
6806,538.68
6841,91.54
6845,26.81
6849,32.73
6856,693.57
6857,1737.5
6861,1672.04
6869,42.97
6902,24.58
6920,2200.71
6923,63.7
6925,146.43
6951,253.2
6952,65.61
6954,144.86
6963,178.14
6965,71.23
6971,107.84
6976,647.43
6981,390.53
6988,79.77
7003,138.37
7011,107.56
7012,62.91
7013,91.69
7164,35.08
7167,45.36
7180,52.52
7181,38.56
7182,91.5
7186,49.24
7189,133.25
7201,6.5
7202,34.42
7203,46.59
7211,8.59
7240,59.43
7259,38.58
7261,20.6
7267,33.57
7269,36.93
7270,43.13
7272,40.82
7276,48.34
7282,24.2
7309,307.5
7313,18.99
7337,54.26
7453,101.79
7458,32.86
7459,75.58
7476,41.52
7532,16.69
7550,328.56
7616,45.89
7649,29.46
7701,87.91
7729,718.63
7731,61.11
7733,41.79
7735,643.82
7741,598.57
7747,90.93
7751,71.79
7752,34.87
7832,149.08
7846,40.79
7867,106.18
7911,75.33
7912,65.7
7936,119.29
7951,25.1
7956,38.43
7974,203.93
7984,15.41
7988,47.35
8001,52.02
8002,106.76
8012,21.37
8015,170.12
8020,44.02
8031,106.02
8035,488.82
8053,39.95
8056,86.65
8058,96.38
8060,58.43
8086,28.14
8088,38.16
8111,33.63
8113,15.88
8129,88.3
8136,36.63
8174,19.09
8227,66.21
8233,44.36
8242,53.08
8252,35.5
8253,90.43
8267,29.43
8282,40.23
8304,89.79
8306,83.4
8308,75.35
8309,37.38
8316,86.82
8331,75.51
8334,97.18
8341,120.8
8354,190.7
8359,80.05
8377,36.59
8410,5.82
8411,256.63
8418,102.58
8424,70.5
8439,53.71
8473,75.89
8570,34.14
8572,7.5
8591,119.84
8593,19.51
8595,23.08
8601,40.43
8604,39.21
8630,147.8
8697,52.98
8725,114.36
8729,3.25
8750,43.06
8766,21.14
8795,113.17
8801,27.85
8802,76.46
8804,62.29
8830,63.49
8876,50.12
9001,46.12
9003,44.83
9005,22.8
9006,23.89
9007,29.33
9008,15.95
9009,28.15
9020,58.57
9021,48.04
9022,67.27
9023,25.22
9024,90.63
9031,66.29
9041,54.77
9042,95.28
9044,72.52
9045,52.29
9048,27.29
9064,38.03
9065,33.21
9069,41.7
9072,177.27
9076,42.63
9101,155.99
9104,184.1
9107,83.52
9142,57.43
9143,23.04
9147,100.36
9201,51.89
9202,45.42
9301,28.84
9302,56.37
9364,62.35
9401,127.68
9404,66.91
9432,2.58
9433,50.5
9434,4.04
9435,820.64
9449,81.29
9468,87.29
9501,18.71
9502,81.18
9503,77.19
9504,27.93
9505,36.22
9506,36.55
9507,69.0
9508,63.94
9509,29.15
9513,88.06
9531,144.18
9532,134.83
9533,31.61
9602,35.29
9616,70.23
9627,138.79
9684,60.83
9697,120.4
9706,103.12
9735,109.4
9744,57.8
9759,60.5
9766,687.15
9831,12.04
9843,113.19
9861,77.71
9934,48.86
9962,126.31
9983,1678.57
9984,399.85
9987,54.76
9989,50.07
