code,atr14
1332,21.06
1333,15.84
1414,18.96
1417,48.02
1605,91.21
1719,30.39
1721,140.27
1801,326.93
1802,62.71
1803,62.27
1808,45.28
1812,112.95
1820,92.96
1860,27.63
1878,47.05
1893,40.01
1911,20.46
1925,30.8
1928,42.07
1942,136.13
1944,149.09
1951,37.79
1959,138.61
1963,57.86
1969,109.03
2002,34.05
2127,9.48
2181,5.38
2201,29.11
2206,63.43
2212,79.07
2222,78.17
2229,38.96
2264,22.43
2267,39.33
2269,78.41
2282,41.36
2327,100.33
2331,23.28
2371,36.14
2413,47.43
2432,47.71
2433,26.75
2501,47.39
2502,27.89
2503,52.57
2531,95.57
2579,81.29
2587,72.5
2593,66.21
2607,98.24
2670,57.57
2768,118.39
2784,36.47
2801,41.46
2802,123.46
2809,87.36
2810,72.13
2811,39.71
285A,872.86
2871,37.52
2875,208.63
2897,49.72
2914,114.64
3003,23.54
3038,65.07
3048,28.11
3064,52.07
3086,59.93
3088,44.48
3092,22.38
3099,41.87
3105,86.79
3107,70.63
3116,30.83
3132,137.78
3197,61.07
3231,11.67
3288,131.98
3289,19.4
3291,36.71
3349,145.71
3360,42.0
3382,29.29
3391,60.36
3397,95.36
3401,32.15
3402,24.64
3405,36.11
3407,30.58
3436,172.68
3549,165.86
3563,180.41
3591,76.86
3626,89.49
3635,32.32
3659,75.04
3697,28.76
3769,204.04
3774,69.04
3861,11.22
3923,29.79
3941,28.76
3994,214.07
4004,851.46
4005,15.77
4021,193.77
4042,43.35
4043,96.48
4045,23.82
4061,80.85
4062,680.43
4063,123.06
4091,130.71
4114,44.36
4118,98.36
4151,40.21
417A,28.9
4182,106.06
4183,56.16
4186,276.29
4188,30.74
4194,224.14
4202,26.22
4203,254.13
4204,37.15
4205,46.93
4206,68.6
4208,59.31
4272,40.45
4307,121.57
4324,67.36
4385,109.71
4401,88.99
4403,43.08
4452,48.86
4502,102.86
4503,45.61
4506,51.75
4507,70.43
4516,58.42
4519,172.71
4523,101.86
4527,62.06
4528,41.25
4536,40.68
4540,49.51
4543,54.64
4544,69.98
4568,69.27
4578,297.86
4587,35.71
4612,29.86
4613,46.51
4626,40.57
4631,108.64
4661,70.27
4665,60.75
4666,60.46
4676,92.54
4680,42.36
4681,27.38
4684,103.41
4689,14.11
4704,202.64
4716,248.71
4732,25.47
4733,159.49
4751,21.0
4755,17.52
4768,68.93
4887,29.87
4901,70.33
4902,22.78
4911,110.93
4912,24.79
4922,111.5
4927,21.71
4967,205.71
4980,124.67
5016,134.16
5019,54.43
5020,34.57
5021,114.75
5076,89.65
5101,184.07
5105,77.36
5108,66.93
5110,35.46
5201,106.07
5214,121.64
5232,53.73
5233,95.9
5301,88.32
5332,147.81
5333,162.02
5334,103.97
5344,2154.58
5393,84.07
5401,13.11
5406,32.94
5411,33.26
5444,228.27
5463,27.96
5471,70.53
5631,227.26
5706,134.06
5711,128.05
5713,333.31
5714,190.79
5801,227.92
5802,91.68
5803,220.23
5830,114.36
5831,87.62
5832,98.91
5838,207.21
5844,120.13
5901,90.35
5929,55.46
5938,19.22
5947,51.48
5991,106.98
6005,60.86
6098,511.56
6113,64.1
6134,268.14
6136,81.93
6141,65.71
6146,2386.84
6178,57.09
6268,128.0
6269,224.57
6273,2027.68
6301,258.51
6302,173.64
6305,133.51
6323,166.57
6326,85.36
6361,151.43
6367,360.13
6368,82.95
6370,139.76
6383,120.79
6417,40.61
6436,48.31
6448,100.25
6457,82.5
6460,81.95
6465,80.14
6471,23.37
6472,8.26
6473,52.28
6479,117.91
6481,201.79
6501,126.43
6503,118.23
6504,423.39
6506,129.36
6525,451.65
6526,106.56
6532,219.14
6544,35.07
6586,95.59
6592,33.25
6632,22.55
6645,161.64
6674,149.02
6701,118.69
6702,92.5
6707,211.79
6723,153.64
6724,72.21
6728,230.21
6752,167.3
6753,18.63
6754,105.31
6758,75.39
6762,142.45
6770,56.48
6806,548.32
6841,96.95
6845,26.85
6849,34.38
6856,708.93
6857,1691.07
6861,1684.28
6869,44.48
6902,24.56
6920,2233.57
6923,60.9
6925,149.29
6951,253.2
6952,63.29
6954,146.29
6963,178.14
6965,77.01
6971,106.94
6976,672.96
6981,372.65
6988,81.63
7003,140.53
7011,105.77
7012,63.63
7013,87.92
7164,36.64
7167,44.28
7180,53.05
7181,37.82
7182,96.29
7186,47.95
7189,134.93
7201,6.75
7202,36.19
7203,46.97
7211,8.75
7240,59.43
7259,39.14
7261,20.23
7267,33.76
7269,41.49
7270,41.56
7272,42.32
7276,49.09
7282,26.07
7309,297.86
7313,19.1
7337,53.91
7453,100.43
7458,32.77
7459,73.81
7476,38.8
7532,15.66
7550,367.28
7616,46.82
7649,28.36
7701,85.8
7729,714.84
7731,62.43
7733,41.96
7735,638.09
7741,603.21
7747,92.5
7751,73.14
7752,36.51
7832,138.67
7846,38.82
7867,104.02
7911,79.57
7912,66.3
7936,115.36
7951,24.81
7956,37.25
7974,182.07
7984,14.84
7988,50.22
8001,50.5
8002,106.14
8012,24.15
8015,170.73
8020,46.29
8031,108.81
8035,489.17
8053,41.19
8056,76.77
8058,98.57
8060,56.93
8086,30.09
8088,40.36
8111,34.06
8113,14.88
8129,86.39
8136,36.42
8174,18.81
8227,63.86
8233,45.07
8242,51.55
8252,34.63
8253,92.71
8267,26.61
8282,43.75
8304,88.43
8306,84.43
8308,74.8
8309,38.64
8316,84.74
8331,75.91
8334,99.33
8341,117.9
8354,203.02
8359,83.58
8377,37.45
8410,5.74
8411,255.62
8418,105.02
8424,70.61
8439,53.97
8473,75.37
8570,34.68
8572,7.93
8591,121.81
8593,19.04
8595,22.7
8601,38.61
8604,37.82
8630,136.48
8697,51.78
8725,110.65
8729,3.05
8750,44.16
8766,21.08
8795,115.22
8801,26.7
8802,72.75
8804,60.86
8830,63.22
8876,50.71
9001,41.81
9003,45.6
9005,20.56
9006,23.37
9007,27.32
9008,14.88
9009,27.76
9020,55.02
9021,42.11
9022,63.25
9023,23.8
9024,82.54
9031,64.5
9041,52.22
9042,96.0
9044,74.05
9045,51.14
9048,26.75
9064,38.74
9065,33.0
9069,44.01
9072,190.9
9076,41.81
9101,162.43
9104,187.71
9107,85.99
9142,53.38
9143,22.18
9147,104.93
9201,51.96
9202,44.19
9301,29.18
9302,53.3
9364,61.53
9401,126.11
9404,64.38
9432,2.62
9433,46.91
9434,4.0
9435,859.75
9449,78.71
9468,88.5
9501,18.79
9502,76.74
9503,74.18
9504,27.4
9505,35.52
9506,36.43
9507,67.51
9508,60.36
9509,28.18
9513,89.06
9531,149.02
9532,136.77
9533,32.51
9602,32.43
9616,67.17
9627,111.5
9684,55.16
9697,120.95
9706,109.09
9735,100.97
9744,53.12
9759,55.21
9766,613.23
9831,12.81
9843,109.44
9861,72.79
9934,57.78
9962,122.95
9983,1777.14
9984,327.52
9987,53.51
9989,48.82
