code,atr14
1332,19.96
1333,16.56
1414,17.89
1417,46.27
1605,86.86
1719,28.9
1721,133.32
1801,305.96
1802,61.93
1803,63.56
1808,45.21
1812,110.27
1820,87.74
1860,25.56
1878,46.14
1893,41.14
1911,20.96
1925,31.33
1928,43.14
1942,126.91
1944,135.32
1951,35.22
1959,127.33
1963,54.43
1969,102.54
2002,34.85
2127,9.6
2181,5.57
2201,29.07
2206,64.5
2212,83.79
2222,76.39
2229,39.68
2264,22.79
2267,39.71
2269,79.26
2282,42.13
2327,99.44
2331,24.17
2371,36.93
2413,48.04
2432,45.46
2433,27.79
2501,48.89
2502,27.0
2503,52.68
2531,94.86
2579,83.36
2587,68.79
2593,68.71
2607,95.83
2670,48.75
2768,114.69
2784,36.86
2801,41.0
2802,123.64
2809,86.36
2810,70.02
2811,40.25
285A,890.12
2871,39.92
2875,199.07
2897,52.32
2914,112.29
3003,25.07
3038,68.07
3048,27.43
3064,51.5
3086,59.57
3088,46.6
3092,22.22
3099,42.6
3105,84.46
3107,70.66
3116,30.19
3132,130.24
3197,61.64
3231,12.11
3288,135.41
3289,19.34
3291,36.38
3349,153.21
3360,43.14
3382,29.57
3391,56.57
3397,94.93
3401,31.77
3402,23.59
3405,34.54
3407,30.46
3436,167.25
3549,166.29
3563,189.02
3591,74.61
3626,96.06
3635,33.0
3659,75.48
3697,30.48
3769,201.04
3774,67.28
3861,11.15
3923,29.89
3941,26.18
3994,223.79
4004,861.46
4005,15.63
4021,192.0
4042,41.91
4043,93.74
4045,22.21
4061,80.53
4062,672.89
4063,119.4
4091,123.34
4114,44.11
4118,96.05
4151,39.54
417A,27.95
4182,101.94
4183,55.63
4186,270.07
4188,30.71
4194,223.71
4202,25.08
4203,254.44
4204,35.79
4205,45.3
4206,67.83
4208,57.14
4272,38.81
4307,122.46
4324,68.93
4385,108.29
4401,84.39
4403,41.3
4452,51.14
4502,105.32
4503,44.45
4506,48.71
4507,71.59
4516,55.66
4519,171.07
4523,95.84
4527,62.59
4528,40.27
4536,39.58
4540,48.73
4543,52.3
4544,69.21
4568,64.19
4578,296.07
4587,34.14
4612,27.75
4613,44.61
4626,39.07
4631,109.14
4661,71.71
4665,59.41
4666,56.11
4676,89.54
4680,40.88
4681,27.68
4684,107.22
4689,14.0
4704,194.5
4716,264.5
4732,26.25
4733,167.36
4751,20.8
4755,16.74
4768,67.07
4887,28.53
4901,69.16
4902,22.83
4911,110.0
4912,26.21
4922,113.14
4927,21.07
4967,206.64
4980,122.61
5016,128.63
5019,52.42
5020,33.39
5021,108.13
5076,87.72
5101,180.86
5105,80.64
5108,65.0
5110,34.68
5201,101.07
5214,119.79
5232,49.4
5233,92.17
5301,93.57
5332,141.23
5333,152.62
5334,99.36
5344,2241.55
5393,81.17
5401,12.77
5406,31.38
5411,31.9
5444,227.62
5463,26.22
5471,69.25
5631,231.22
5706,130.95
5711,120.36
5713,313.99
5714,185.21
5801,222.38
5802,89.95
5803,217.54
5830,114.57
5831,88.77
5832,96.39
5838,197.64
5844,121.41
5901,85.61
5929,55.41
5938,18.65
5947,52.91
5991,103.0
6005,58.34
6098,505.46
6113,64.06
6134,262.32
6136,79.57
6141,63.14
6146,2404.31
6178,56.41
6268,120.79
6269,217.71
6273,1943.39
6301,225.19
6302,159.64
6305,120.84
6323,169.57
6326,74.39
6361,151.36
6367,359.92
6368,80.29
6370,128.76
6383,116.71
6417,40.25
6436,45.06
6448,98.24
6457,81.57
6460,85.95
6465,81.36
6471,21.84
6472,7.82
6473,49.41
6479,115.4
6481,197.07
6501,127.88
6503,110.25
6504,396.07
6506,125.36
6525,469.21
6526,106.79
6532,219.5
6544,34.21
6586,87.6
6592,32.64
6632,21.97
6645,156.29
6674,148.29
6701,127.26
6702,97.36
6707,202.86
6723,150.86
6724,70.8
6728,239.79
6752,163.15
6753,20.03
6754,102.26
6758,77.78
6762,136.58
6770,55.3
6806,535.85
6841,94.96
6845,26.6
6849,32.76
6856,707.5
6857,1703.21
6861,1643.97
6869,43.39
6902,24.39
6920,2219.29
6923,61.13
6925,145.57
6951,250.42
6952,61.11
6954,145.5
6963,171.5
6965,73.62
6971,107.96
6976,644.96
6981,375.55
6988,79.82
7003,135.12
7011,110.01
7012,64.49
7013,91.48
7164,34.97
7167,45.62
7180,53.34
7181,37.77
7182,93.57
7186,49.99
7189,134.38
7201,6.54
7202,34.94
7203,46.78
7211,8.54
7240,59.43
7259,38.53
7261,19.74
7267,32.77
7269,40.5
7270,41.49
7272,41.57
7276,47.7
7282,24.45
7309,286.43
7313,18.8
7337,54.32
7453,102.79
7458,31.67
7459,74.07
7476,39.65
7532,16.04
7550,350.76
7616,46.96
7649,28.5
7701,85.97
7729,720.87
7731,60.95
7733,41.5
7735,637.58
7741,586.43
7747,85.14
7751,70.07
7752,32.91
7832,137.04
7846,38.39
7867,102.31
7911,75.78
7912,66.52
7936,117.29
7951,24.37
7956,36.89
7974,200.86
7984,14.43
7988,46.5
8001,49.04
8002,104.87
8012,21.78
8015,168.15
8020,43.07
8031,100.76
8035,491.26
8053,40.94
8056,81.15
8058,93.84
8060,55.0
8086,28.23
8088,37.37
8111,32.79
8113,15.47
8129,84.65
8136,35.94
8174,18.33
8227,63.36
8233,44.82
8242,51.23
8252,32.89
8253,91.14
8267,27.11
8282,41.26
8304,86.57
8306,82.42
8308,77.21
8309,37.21
8316,87.32
8331,76.58
8334,99.15
8341,119.35
8354,201.89
8359,82.14
8377,37.32
8410,5.73
8411,253.46
8418,102.74
8424,68.75
8439,52.69
8473,75.11
8570,33.0
8572,7.57
8591,121.09
8593,19.22
8595,22.69
8601,40.29
8604,38.57
8630,143.5
8697,52.83
8725,111.22
8729,3.01
8750,43.07
8766,21.08
8795,112.0
8801,27.1
8802,74.71
8804,61.93
8830,63.81
8876,49.46
9001,42.58
9003,44.88
9005,21.25
9006,23.09
9007,27.57
9008,14.96
9009,27.32
9020,55.59
9021,43.08
9022,62.09
9023,24.44
9024,86.54
9031,65.39
9041,51.04
9042,93.44
9044,71.13
9045,49.14
9048,26.18
9064,37.71
9065,32.7
9069,42.08
9072,181.08
9076,41.96
9101,152.26
9104,180.78
9107,82.05
9142,53.6
9143,22.12
9147,107.14
9201,51.09
9202,44.2
9301,28.9
9302,51.99
9364,59.04
9401,133.19
9404,67.78
9432,2.63
9433,47.93
9434,3.93
9435,823.79
9449,78.57
9468,87.79
9501,18.2
9502,72.69
9503,75.22
9504,27.04
9505,35.57
9506,35.44
9507,67.56
9508,60.36
9509,27.73
9513,85.5
9531,138.8
9532,128.09
9533,29.96
9602,35.04
9616,68.14
9627,133.79
9684,56.06
9697,119.11
9706,103.66
9735,102.51
9744,52.97
9759,56.82
9766,653.97
9831,12.46
9843,108.03
9861,76.43
9934,53.25
9962,124.09
9983,1756.43
9984,347.69
9987,53.37
9989,48.52
