code,atr14
1332,31.5
1333,22.36
1414,20.89
1417,74.64
1605,115.93
1719,35.96
1721,125.86
1801,433.93
1802,81.25
1803,66.82
1808,57.61
1812,158.29
1820,104.29
1860,30.61
1878,63.21
1893,51.18
1911,32.93
1925,72.64
1928,51.14
1942,195.93
1944,218.21
1951,66.21
1959,211.64
1963,74.21
1969,158.36
2002,42.36
2127,13.03
2181,6.51
2201,50.0
2206,111.21
2212,102.93
2222,94.89
2229,56.89
2264,40.07
2267,68.46
2269,125.36
2282,166.64
2327,92.36
2331,28.39
2371,21.5
2413,104.71
2432,61.71
2433,50.5
2501,76.71
2502,41.25
2503,87.89
2531,63.75
2579,129.43
2587,104.71
2593,65.61
2607,156.14
2670,51.07
2768,162.86
2784,45.29
2801,61.21
2802,228.21
2809,102.0
2810,78.86
2811,47.36
285A,5540.71
2871,68.57
2875,264.29
2897,92.71
2914,160.43
3003,27.86
3038,70.0
3048,33.11
3064,61.86
3086,70.86
3088,56.61
3092,26.54
3099,128.86
3105,134.54
3107,99.14
3116,53.11
3132,184.5
3197,89.93
3231,12.27
3288,196.93
3289,22.5
3291,48.82
3349,177.14
3360,66.04
3382,45.71
3391,54.46
3397,107.57
3401,50.75
3402,46.54
3405,61.14
3407,48.46
3436,310.64
3549,96.36
3563,261.5
3591,109.93
3626,106.43
3635,42.82
3659,149.68
3697,47.91
3769,413.71
3774,94.86
3861,18.19
3923,46.89
3941,46.86
3994,356.43
4004,1133.57
4005,18.4
4021,261.36
4042,66.96
4043,157.36
4045,29.32
4061,181.64
4062,1716.43
4063,163.57
4091,170.5
4114,95.82
4118,157.29
4151,62.54
417A,37.07
4182,233.57
4183,66.11
4186,492.86
4188,38.21
4194,286.57
4202,34.29
4203,396.21
4204,49.21
4205,61.18
4206,111.21
4208,100.21
4272,51.79
4307,172.71
4324,132.43
4385,231.93
4401,172.43
4403,84.36
4452,109.14
4502,123.21
4503,68.57
4506,56.64
4507,69.68
4516,81.43
4519,176.43
4523,147.93
4527,95.25
4528,50.71
4536,60.21
4540,53.5
4543,92.04
4544,104.86
4568,85.04
4578,476.07
4587,46.93
4612,37.61
4613,63.43
4626,74.5
4631,224.71
4661,91.71
4665,97.57
4666,35.5
4676,107.79
4680,75.11
4681,48.96
4684,120.79
4689,16.36
4704,276.07
4716,249.86
4732,34.0
4733,236.79
4751,51.71
4755,31.21
4768,108.0
4887,43.5
4901,136.36
4902,28.75
4911,146.21
4912,53.5
4922,208.93
4927,32.82
4967,102.64
4980,168.14
5016,228.36
5019,39.64
5020,41.07
5021,131.07
5076,91.68
5101,352.5
5105,165.21
5108,116.29
5110,83.29
5201,191.93
5214,238.29
5232,282.0
5233,143.21
5301,82.43
5332,259.07
5333,250.64
5334,275.71
5344,3377.86
5393,126.21
5401,18.55
5406,53.79
5411,51.64
5444,376.79
5463,52.68
5471,96.43
5631,291.43
5706,2524.29
5711,292.64
5713,594.86
5714,398.71
5801,370.68
5802,149.96
5803,452.64
5830,142.0
5831,108.5
5832,96.07
5838,246.07
5844,132.93
5901,115.14
5929,86.57
5938,28.82
5947,73.29
5991,138.07
6005,87.07
6098,688.21
6113,122.14
6134,473.64
6136,142.64
6141,171.18
6146,3216.43
6178,60.71
6268,197.0
6269,554.36
6273,3502.86
6301,218.21
6302,263.5
6305,181.57
6323,252.36
6326,109.79
6361,298.57
6367,592.5
6368,741.43
6370,315.79
6383,196.5
6417,48.14
6436,65.29
6448,147.36
6457,140.43
6460,92.46
6465,140.07
6471,33.68
6472,13.48
6473,66.46
6479,155.93
6481,400.57
6501,162.36
6503,228.14
6504,664.64
6506,207.79
6525,680.86
6526,102.29
6532,289.86
6544,57.11
6586,122.64
6592,45.86
6632,46.64
6645,344.71
6674,294.64
6701,192.07
6702,122.79
6707,430.93
6723,220.93
6724,93.64
6728,471.71
6752,204.71
6753,25.36
6754,176.57
6758,121.64
6762,135.89
6770,73.14
6806,890.36
6841,235.93
6845,50.96
6849,56.07
6856,1109.64
6857,2053.57
6861,2572.86
6869,75.36
6902,40.75
6920,2765.0
6923,82.14
6925,212.93
6951,418.21
6952,127.71
6954,305.71
6963,243.79
6965,117.64
6971,132.21
6976,939.0
6981,553.14
6988,94.0
7003,253.07
7011,178.64
7012,116.64
7013,139.96
7164,45.07
7167,52.68
7180,51.79
7181,56.54
7182,93.93
7186,54.54
7189,152.43
7201,11.11
7202,69.21
7203,80.68
7211,10.84
7240,57.07
7259,54.43
7261,39.89
7267,55.64
7269,77.32
7270,84.43
7272,102.04
7276,58.21
7282,178.14
7309,579.64
7313,26.0
7337,62.68
7453,132.71
7458,37.96
7459,66.43
7476,54.71
7532,27.32
7550,356.43
7616,48.57
7649,71.68
7701,108.86
7729,938.57
7731,72.64
7733,72.25
7735,681.43
7741,768.57
7747,143.5
7751,81.29
7752,43.68
7832,229.64
7846,53.18
7867,122.93
7911,224.0
7912,88.39
7936,243.57
7951,42.93
7956,54.18
7974,314.57
7984,16.5
7988,124.64
8001,55.39
8002,156.21
8012,36.93
8015,264.64
8020,65.57
8031,126.5
8035,2726.43
8053,51.86
8056,175.43
8058,130.79
8060,66.0
8086,38.68
8088,67.46
8111,64.39
8113,27.04
8129,119.07
8136,81.07
8174,50.29
8227,72.58
8233,60.43
8242,81.14
8252,54.54
8253,109.43
8267,32.64
8282,48.64
8304,100.36
8306,97.21
8308,78.43
8309,41.11
8316,177.93
8331,76.36
8334,75.0
8341,120.07
8354,222.93
8359,84.79
8377,297.07
8410,9.02
8411,248.93
8418,90.0
8424,73.36
8439,62.43
8473,92.75
8570,35.96
8572,7.09
8591,149.79
8593,29.25
8595,25.82
8601,42.11
8604,34.57
8630,168.5
8697,55.0
8725,129.64
8729,3.22
8750,47.46
8766,179.57
8795,130.43
8801,35.36
8802,95.36
8804,79.0
8830,80.86
8876,47.07
9001,60.46
9003,52.82
9005,28.5
9006,23.82
9007,36.61
9008,15.71
9009,29.86
9020,85.43
9021,64.18
9022,89.64
9023,22.25
9024,133.5
9031,69.5
9041,68.07
9042,100.21
9044,59.96
9045,56.57
9048,31.75
9064,58.43
9065,231.79
9069,49.89
9072,197.14
9076,69.61
9101,191.43
9104,212.14
9107,102.61
9142,62.86
9143,40.79
9147,176.36
9201,54.64
9202,52.43
9301,38.43
9302,97.71
9364,92.79
9401,143.64
9404,75.75
9432,3.08
9433,74.82
9434,4.94
9435,968.57
9449,147.79
9468,95.71
9501,21.48
9502,71.96
9503,68.93
9504,20.35
9505,23.8
9506,31.71
9507,48.75
9508,52.79
9509,28.07
9513,84.5
9531,121.14
9532,113.57
9533,23.57
9602,42.64
9616,111.43
9627,157.29
9684,113.0
9697,149.0
9706,151.14
9735,175.57
9744,49.21
9759,70.21
9766,750.0
9831,21.09
9843,119.18
9861,68.71
9934,67.79
9962,150.93
9983,1974.29
9984,355.36
9987,119.57
9989,64.5
