code,atr14
1332,21.94
1333,16.98
1414,18.39
1417,49.64
1605,103.86
1719,32.47
1721,135.75
1801,340.13
1802,70.86
1803,76.71
1808,52.5
1812,132.52
1820,93.78
1860,26.27
1878,50.07
1893,50.48
1911,25.18
1925,34.32
1928,51.93
1942,148.24
1944,162.68
1951,38.11
1959,147.32
1963,68.79
1969,111.67
2002,35.12
2127,11.57
2181,7.24
2201,30.26
2206,69.79
2212,86.36
2222,69.86
2229,41.89
2264,28.32
2267,47.25
2269,80.73
2282,44.05
2327,103.42
2331,25.9
2371,45.36
2413,48.93
2432,54.04
2433,32.9
2501,41.21
2502,25.68
2503,49.68
2531,85.11
2579,82.07
2587,68.21
2593,72.36
2607,105.6
2670,46.64
2768,128.7
2784,38.18
2801,37.37
2802,127.67
2809,80.79
2810,66.53
2811,41.25
285A,1042.98
2871,41.68
2875,183.03
2897,59.2
2914,119.86
3003,26.29
3038,94.79
3048,31.57
3064,52.5
3086,54.04
3088,57.29
3092,24.83
3099,35.31
3105,92.46
3107,74.4
3116,36.16
3132,145.26
3197,64.86
3231,12.12
3288,152.9
3289,19.76
3291,37.59
3349,166.79
3360,51.11
3382,33.93
3391,54.57
3397,99.93
3401,33.07
3402,24.62
3405,34.57
3407,31.75
3436,180.11
3549,113.71
3563,195.13
3591,73.54
3626,99.43
3635,34.61
3659,70.63
3697,30.14
3769,216.6
3774,75.34
3861,12.01
3923,33.56
3941,29.11
3994,245.64
4004,896.1
4005,16.58
4021,183.32
4042,41.82
4043,100.18
4045,25.82
4061,86.08
4062,762.74
4063,108.8
4091,125.09
4114,44.49
4118,97.19
4151,50.07
417A,32.33
4182,112.81
4183,57.7
4186,306.86
4188,33.32
4194,285.29
4202,23.54
4203,298.57
4204,38.77
4205,46.52
4206,64.27
4208,60.54
4272,40.17
4307,139.13
4324,74.57
4385,123.5
4401,90.94
4403,46.22
4452,56.79
4502,112.81
4503,47.25
4506,55.25
4507,56.14
4516,50.73
4519,166.21
4523,93.84
4527,64.32
4528,45.22
4536,39.45
4540,55.28
4543,52.16
4544,68.98
4568,71.66
4578,315.36
4587,33.61
4612,24.89
4613,46.36
4626,27.36
4631,114.57
4661,79.35
4665,59.55
4666,51.04
4676,77.06
4680,43.87
4681,29.87
4684,119.91
4689,15.62
4704,203.5
4716,273.29
4732,29.01
4733,172.81
4751,23.53
4755,15.74
4768,66.71
4887,30.66
4901,62.63
4902,23.08
4911,108.14
4912,28.71
4922,115.93
4927,20.43
4967,188.64
4980,106.29
5016,138.4
5019,62.11
5020,39.62
5021,122.6
5076,64.69
5101,184.5
5105,100.93
5108,66.86
5110,37.75
5201,112.14
5214,117.86
5232,51.8
5233,92.44
5301,105.14
5332,133.47
5333,154.01
5334,98.07
5344,2282.23
5393,80.78
5401,13.08
5406,33.44
5411,33.53
5444,226.33
5463,25.17
5471,66.89
5631,281.52
5706,132.34
5711,148.93
5713,363.28
5714,248.07
5801,227.69
5802,91.7
5803,240.21
5830,126.6
5831,98.93
5832,104.51
5838,222.93
5844,132.96
5901,86.5
5929,60.35
5938,18.98
5947,58.99
5991,75.62
6005,71.76
6098,573.18
6113,69.96
6134,261.49
6136,85.14
6141,61.5
6146,2158.54
6178,60.24
6268,138.21
6269,281.86
6273,2043.36
6301,206.64
6302,175.0
6305,122.36
6323,175.64
6326,71.71
6361,159.64
6367,336.83
6368,77.83
6370,150.62
6383,134.43
6417,46.5
6436,49.05
6448,111.37
6457,100.83
6460,96.23
6465,91.71
6471,21.64
6472,7.81
6473,52.8
6479,108.18
6481,199.0
6501,127.75
6503,123.5
6504,430.23
6506,134.64
6525,525.74
6526,105.26
6532,219.57
6544,39.5
6586,92.64
6592,33.5
6632,22.09
6645,162.86
6674,163.51
6701,140.63
6702,109.9
6707,220.0
6723,134.21
6724,76.68
6728,253.93
6752,163.17
6753,23.89
6754,102.51
6758,83.94
6762,110.07
6770,56.37
6806,512.52
6841,99.83
6845,27.07
6849,35.83
6856,695.36
6857,1696.79
6861,1833.19
6869,42.39
6902,27.22
6920,2252.86
6923,63.48
6925,135.79
6951,272.23
6952,64.57
6954,150.0
6963,197.71
6965,66.66
6971,103.45
6976,591.36
6981,409.92
6988,81.04
7003,156.84
7011,116.87
7012,72.24
7013,110.77
7164,35.99
7167,46.9
7180,54.08
7181,41.11
7182,99.5
7186,53.15
7189,141.77
7201,6.46
7202,38.67
7203,48.89
7211,8.92
7240,59.43
7259,40.27
7261,22.53
7267,35.52
7269,42.4
7270,48.36
7272,41.21
7276,48.23
7282,22.99
7309,327.5
7313,20.13
7337,56.93
7453,109.29
7458,33.22
7459,76.93
7476,44.16
7532,19.01
7550,345.41
7616,41.39
7649,31.46
7701,75.6
7729,699.28
7731,63.21
7733,41.61
7735,673.21
7741,553.21
7747,92.36
7751,71.5
7752,35.73
7832,168.53
7846,42.54
7867,116.37
7911,79.69
7912,66.24
7936,114.43
7951,26.68
7956,41.36
7974,249.14
7984,16.37
7988,49.89
8001,55.81
8002,121.96
8012,20.98
8015,200.91
8020,49.02
8031,112.59
8035,458.94
8053,43.83
8056,100.19
8058,108.58
8060,71.14
8086,27.73
8088,45.9
8111,36.85
8113,16.13
8129,72.91
8136,39.95
8174,20.03
8227,65.86
8233,41.25
8242,51.57
8252,35.58
8253,90.64
8267,33.32
8282,39.9
8304,97.71
8306,88.78
8308,78.17
8309,38.59
8316,90.74
8331,78.52
8334,102.53
8341,132.43
8354,198.33
8359,90.79
8377,679.89
8410,5.92
8411,264.97
8418,102.65
8424,71.89
8439,54.83
8473,83.4
8570,36.39
8572,7.54
8591,116.34
8593,20.12
8595,22.47
8601,41.64
8604,42.93
8630,151.49
8697,55.09
8725,122.63
8729,3.37
8750,45.69
8766,19.97
8795,122.8
8801,28.88
8802,79.0
8804,65.0
8830,69.97
8876,51.54
9001,47.86
9003,46.22
9005,24.17
9006,22.73
9007,30.01
9008,16.11
9009,27.25
9020,61.17
9021,48.06
9022,68.78
9023,23.99
9024,88.96
9031,67.66
9041,52.95
9042,81.13
9044,70.92
9045,53.36
9048,27.89
9064,39.64
9065,36.3
9069,42.23
9072,136.08
9076,41.96
9101,172.86
9104,196.67
9107,94.06
9142,57.97
9143,22.43
9147,113.71
9201,50.78
9202,45.09
9301,30.16
9302,61.77
9364,64.6
9401,116.43
9404,68.57
9432,2.84
9433,54.3
9434,4.43
9435,860.51
9449,86.43
9468,76.36
9501,21.58
9502,90.93
9503,87.26
9504,30.81
9505,35.57
9506,40.3
9507,79.68
9508,56.24
9509,30.55
9513,93.14
9531,151.9
9532,152.45
9533,33.87
9602,37.86
9616,67.28
9627,159.36
9684,65.17
9697,131.59
9706,104.26
9735,109.36
9744,56.75
9759,60.64
9766,671.21
9831,13.7
9843,107.75
9861,79.0
9934,56.72
9962,121.83
9983,1613.57
9984,414.35
9987,50.03
9989,51.76
