code,atr14
1332,21.38
1333,17.18
1414,18.64
1417,49.45
1605,109.86
1719,32.39
1721,137.08
1801,358.71
1802,71.43
1803,80.57
1808,50.55
1812,136.58
1820,90.87
1860,26.37
1878,51.83
1893,50.19
1911,24.07
1925,34.4
1928,50.57
1942,140.78
1944,160.52
1951,37.07
1959,149.67
1963,68.11
1969,106.39
2002,35.49
2127,11.68
2181,7.53
2201,30.76
2206,68.0
2212,90.21
2222,68.3
2229,41.96
2264,28.13
2267,47.0
2269,81.08
2282,41.88
2327,103.51
2331,24.77
2371,44.57
2413,49.25
2432,56.54
2433,31.92
2501,38.82
2502,23.68
2503,45.43
2531,81.07
2579,73.29
2587,64.0
2593,73.14
2607,102.99
2670,46.46
2768,124.52
2784,37.41
2801,34.39
2802,117.26
2809,80.93
2810,60.11
2811,40.0
285A,1054.64
2871,43.81
2875,172.4
2897,60.32
2914,110.57
3003,25.11
3038,101.07
3048,32.75
3064,52.61
3086,56.79
3088,55.4
3092,23.28
3099,34.77
3105,94.71
3107,75.98
3116,39.91
3132,151.41
3197,66.93
3231,11.79
3288,150.78
3289,20.02
3291,38.5
3349,167.43
3360,49.14
3382,31.5
3391,54.75
3397,99.43
3401,35.38
3402,25.47
3405,34.54
3407,31.14
3436,178.61
3549,112.64
3563,194.43
3591,72.12
3626,99.36
3635,35.89
3659,69.38
3697,32.02
3769,212.36
3774,74.03
3861,11.75
3923,33.53
3941,29.16
3994,253.0
4004,902.5
4005,17.06
4021,171.87
4042,44.43
4043,107.63
4045,28.18
4061,92.16
4062,736.06
4063,104.2
4091,126.11
4114,44.96
4118,103.07
4151,47.75
417A,33.23
4182,117.25
4183,58.53
4186,316.43
4188,35.54
4194,282.93
4202,24.24
4203,312.6
4204,37.58
4205,49.34
4206,65.76
4208,61.41
4272,40.43
4307,137.52
4324,70.79
4385,132.14
4401,99.72
4403,44.9
4452,55.36
4502,106.44
4503,42.57
4506,56.0
4507,52.19
4516,48.16
4519,148.57
4523,87.19
4527,60.75
4528,42.78
4536,37.28
4540,52.59
4543,48.34
4544,66.56
4568,69.28
4578,301.79
4587,31.79
4612,24.57
4613,45.62
4626,23.14
4631,124.64
4661,80.26
4665,57.49
4666,46.64
4676,74.04
4680,44.21
4681,29.78
4684,119.22
4689,15.8
4704,193.86
4716,268.79
4732,27.88
4733,168.66
4751,21.61
4755,14.62
4768,65.71
4887,31.14
4901,61.94
4902,24.31
4911,100.64
4912,28.36
4922,113.71
4927,20.86
4967,194.29
4980,107.85
5016,146.21
5019,60.61
5020,40.08
5021,118.92
5076,60.18
5101,187.79
5105,106.14
5108,68.21
5110,41.68
5201,118.14
5214,118.57
5232,51.09
5233,90.36
5301,106.07
5332,129.4
5333,162.92
5334,112.86
5344,2176.35
5393,83.03
5401,13.62
5406,33.43
5411,34.16
5444,243.74
5463,26.31
5471,71.85
5631,293.58
5706,127.52
5711,155.78
5713,376.81
5714,253.57
5801,223.7
5802,90.94
5803,241.92
5830,120.7
5831,94.19
5832,98.27
5838,208.86
5844,130.87
5901,83.4
5929,60.46
5938,17.31
5947,57.89
5991,81.3
6005,71.16
6098,575.65
6113,73.67
6134,269.53
6136,94.14
6141,69.75
6146,2177.78
6178,57.38
6268,153.57
6269,288.14
6273,2110.43
6301,208.17
6302,185.64
6305,133.47
6323,175.71
6326,71.64
6361,161.86
6367,333.08
6368,80.16
6370,168.58
6383,137.71
6417,47.21
6436,51.27
6448,116.74
6457,104.26
6460,90.68
6465,89.07
6471,23.92
6472,8.9
6473,59.47
6479,109.66
6481,225.86
6501,132.83
6503,132.73
6504,423.41
6506,134.64
6525,522.86
6526,104.49
6532,218.07
6544,37.5
6586,90.01
6592,34.79
6632,22.54
6645,181.86
6674,169.99
6701,140.54
6702,111.01
6707,226.64
6723,137.71
6724,84.48
6728,248.71
6752,170.27
6753,23.37
6754,108.98
6758,84.33
6762,109.29
6770,63.81
6806,546.54
6841,109.3
6845,26.94
6849,34.85
6856,736.07
6857,1592.5
6861,1923.18
6869,43.07
6902,28.62
6920,1984.29
6923,75.95
6925,132.07
6951,268.85
6952,74.82
6954,149.57
6963,209.86
6965,63.83
6971,104.87
6976,580.87
6981,401.94
6988,89.05
7003,154.71
7011,117.41
7012,75.96
7013,112.2
7164,34.96
7167,43.66
7180,47.77
7181,39.49
7182,94.43
7186,49.12
7189,133.56
7201,6.91
7202,40.41
7203,52.78
7211,10.01
7240,64.66
7259,44.18
7261,25.4
7267,37.71
7269,44.22
7270,51.56
7272,46.61
7276,56.26
7282,26.49
7309,336.79
7313,22.24
7337,53.19
7453,104.21
7458,32.72
7459,73.67
7476,46.29
7532,18.84
7550,336.02
7616,40.68
7649,30.5
7701,73.48
7729,698.25
7731,61.54
7733,42.71
7735,633.0
7741,552.86
7747,92.36
7751,72.57
7752,38.19
7832,157.71
7846,42.18
7867,109.89
7911,81.8
7912,64.42
7936,111.43
7951,27.92
7956,45.18
7974,256.57
7984,16.26
7988,50.9
8001,55.94
8002,121.25
8012,21.85
8015,199.76
8020,48.16
8031,113.8
8035,440.41
8053,43.18
8056,101.89
8058,109.21
8060,66.86
8086,26.93
8088,45.08
8111,34.33
8113,15.98
8129,61.23
8136,38.83
8174,20.26
8227,64.57
8233,44.32
8242,50.94
8252,36.95
8253,89.36
8267,31.57
8282,39.2
8304,93.36
8306,82.4
8308,72.78
8309,36.12
8316,85.39
8331,75.29
8334,93.91
8341,123.47
8354,175.33
8359,83.03
8377,690.86
8410,5.64
8411,249.87
8418,96.43
8424,62.76
8439,53.92
8473,83.41
8570,33.04
8572,7.16
8591,115.41
8593,18.81
8595,21.51
8601,40.96
8604,43.0
8630,147.06
8697,52.35
8725,117.61
8729,3.04
8750,43.91
8766,18.5
8795,117.09
8801,29.63
8802,82.09
8804,64.21
8830,71.69
8876,49.4
9001,47.02
9003,44.87
9005,24.61
9006,20.52
9007,29.21
9008,16.18
9009,26.98
9020,61.61
9021,45.48
9022,67.47
9023,23.62
9024,84.71
9031,68.49
9041,50.65
9042,81.48
9044,70.6
9045,50.36
9048,26.61
9064,36.28
9065,34.25
9069,39.39
9072,79.79
9076,42.65
9101,173.24
9104,191.18
9107,91.64
9142,57.42
9143,21.39
9147,120.36
9201,47.06
9202,41.22
9301,29.06
9302,63.46
9364,61.83
9401,104.38
9404,66.88
9432,2.99
9433,53.17
9434,4.53
9435,851.61
9449,84.14
9468,71.64
9501,20.48
9502,88.55
9503,82.78
9504,29.35
9505,33.05
9506,38.31
9507,72.93
9508,60.93
9509,28.56
9513,86.52
9531,142.47
9532,156.28
9533,33.92
9602,39.43
9616,66.18
9627,158.36
9684,66.21
9697,130.88
9706,105.13
9735,101.51
9744,55.43
9759,60.25
9766,612.1
9831,13.71
9843,115.81
9861,75.21
9934,55.05
9962,124.22
9983,1365.0
9984,431.53
9987,49.44
9989,49.35
