code,atr14
1332,22.32
1333,16.5
1414,16.29
1417,59.07
1605,108.14
1719,25.54
1721,94.43
1801,378.93
1802,59.68
1803,57.86
1808,51.46
1812,117.57
1820,74.79
1860,27.07
1878,51.93
1893,37.54
1911,25.14
1925,63.29
1928,45.5
1942,138.71
1944,169.07
1951,40.79
1959,169.21
1963,69.36
1969,97.64
2002,34.11
2127,13.76
2181,5.6
2201,32.86
2206,65.93
2212,78.57
2222,67.11
2229,44.61
2264,21.43
2267,51.96
2269,86.57
2282,109.29
2327,91.43
2331,18.43
2371,31.79
2413,63.61
2432,56.25
2433,39.0
2501,35.36
2502,23.82
2503,51.29
2531,80.64
2579,86.36
2587,70.79
2593,83.57
2607,102.93
2670,45.83
2768,140.79
2784,30.36
2801,40.18
2802,142.0
2809,84.0
2810,69.29
2811,32.93
285A,3504.29
2871,40.32
2875,193.21
2897,56.43
2914,101.86
3003,28.29
3038,93.14
3048,34.62
3064,47.32
3086,89.15
3088,48.89
3092,21.25
3099,86.64
3105,70.96
3107,79.86
3116,48.46
3132,139.93
3197,75.86
3231,11.94
3288,146.71
3289,22.68
3291,37.75
3349,175.64
3360,41.71
3382,32.05
3391,56.28
3397,78.5
3401,42.43
3402,29.14
3405,42.82
3407,33.18
3436,213.29
3549,117.0
3563,224.86
3591,61.36
3626,99.36
3635,37.89
3659,77.39
3697,44.56
3769,302.07
3774,89.43
3861,12.39
3923,46.61
3941,30.86
3994,381.93
4004,801.79
4005,22.31
4021,236.14
4042,49.04
4043,120.79
4045,32.25
4061,99.0
4062,1269.64
4063,96.93
4091,131.5
4114,52.36
4118,121.14
4151,73.39
417A,32.21
4182,109.71
4183,68.18
4186,290.5
4188,38.75
4194,242.0
4202,30.25
4203,235.21
4204,38.79
4205,66.14
4206,71.71
4208,60.36
4272,38.04
4307,157.21
4324,106.36
4385,189.14
4401,111.86
4403,47.82
4452,60.43
4502,99.71
4503,47.5
4506,65.25
4507,59.32
4516,60.07
4519,133.43
4523,97.57
4527,69.86
4528,50.14
4536,46.5
4540,40.0
4543,60.11
4544,76.0
4568,77.21
4578,275.71
4587,41.46
4612,27.36
4613,38.39
4626,21.0
4631,159.21
4661,68.79
4665,62.79
4666,43.21
4676,85.21
4680,51.82
4681,31.32
4684,132.5
4689,14.97
4704,199.21
4716,226.07
4732,26.82
4733,200.86
4751,35.5
4755,19.42
4768,77.93
4887,24.82
4901,72.57
4902,22.59
4911,116.93
4912,41.07
4922,133.93
4927,19.93
4967,85.5
4980,119.89
5016,170.71
5019,39.61
5020,35.29
5021,100.07
5076,64.68
5101,256.57
5105,97.43
5108,73.5
5110,62.96
5201,123.5
5214,126.21
5232,166.21
5233,95.0
5301,65.86
5332,161.21
5333,175.0
5334,251.14
5344,2340.71
5393,98.86
5401,18.21
5406,35.29
5411,49.14
5444,362.14
5463,37.43
5471,87.11
5631,279.43
5706,1382.14
5711,322.0
5713,644.07
5714,438.79
5801,236.57
5802,76.79
5803,281.29
5830,102.79
5831,84.5
5832,75.57
5838,191.71
5844,105.43
5901,79.29
5929,67.43
5938,19.96
5947,53.14
5991,105.0
6005,67.86
6098,638.57
6113,78.04
6134,263.57
6136,101.71
6141,79.0
6146,2450.71
6178,60.07
6268,155.64
6269,346.07
6273,2185.0
6301,185.43
6302,229.14
6305,209.57
6323,157.07
6326,105.96
6361,170.64
6367,345.0
6368,470.71
6370,232.64
6383,153.71
6417,35.79
6436,51.14
6448,123.14
6457,102.0
6460,82.71
6465,83.21
6471,27.39
6472,10.26
6473,67.79
6479,104.0
6481,214.5
6501,143.0
6503,155.0
6504,434.64
6506,147.47
6525,482.79
6526,81.89
6532,255.44
6544,37.43
6586,108.07
6592,38.14
6632,22.86
6645,211.93
6674,159.5
6701,162.71
6702,112.21
6707,273.0
6723,144.5
6724,84.39
6728,236.43
6752,151.43
6753,18.61
6754,107.0
6758,97.57
6762,106.79
6770,68.79
6806,651.43
6841,138.0
6845,31.0
6849,29.39
6856,723.57
6857,1680.0
6861,1937.86
6869,50.86
6902,31.89
6920,1627.14
6923,78.29
6925,126.79
6951,218.93
6952,98.82
6954,159.5
6963,240.14
6965,70.71
6971,90.71
6976,583.79
6981,363.64
6988,100.0
7003,184.79
7011,110.29
7012,74.14
7013,104.61
7164,31.07
7167,39.79
7180,36.82
7181,37.68
7182,81.93
7186,46.89
7189,123.71
7201,11.32
7202,54.39
7203,78.68
7211,14.11
7240,63.61
7259,50.68
7261,38.86
7267,47.0
7269,59.36
7270,61.93
7272,63.93
7276,50.93
7282,163.0
7309,473.93
7313,22.39
7337,49.36
7453,122.04
7458,28.32
7459,48.89
7476,53.04
7532,19.57
7550,343.57
7616,34.86
7649,29.21
7701,77.64
7729,732.86
7731,53.11
7733,54.64
7735,497.86
7741,589.64
7747,136.21
7751,78.07
7752,38.39
7832,151.93
7846,47.89
7867,78.14
7911,183.57
7912,71.29
7936,176.43
7951,25.07
7956,46.5
7974,252.21
7984,14.59
7988,104.57
8001,55.25
8002,122.07
8012,29.36
8015,225.43
8020,47.5
8031,131.21
8035,2291.43
8053,52.57
8056,103.36
8058,125.71
8060,77.86
8086,26.96
8088,50.14
8111,35.61
8113,16.66
8129,74.57
8136,45.68
8174,58.46
8227,65.5
8233,69.46
8242,61.68
8252,41.14
8253,94.71
8267,30.36
8282,35.11
8304,82.93
8306,83.14
8308,63.36
8309,40.14
8316,155.14
8331,71.36
8334,65.75
8341,96.5
8354,169.14
8359,58.61
8377,222.93
8410,5.71
8411,207.86
8418,70.71
8424,50.79
8439,60.93
8473,103.57
8570,36.68
8572,5.71
8591,145.36
8593,17.57
8595,22.18
8601,38.25
8604,37.46
8630,129.64
8697,46.82
8725,110.36
8729,3.89
8750,40.43
8766,173.86
8795,106.0
8801,32.07
8802,78.14
8804,59.07
8830,73.64
8876,41.0
9001,37.82
9003,36.07
9005,21.54
9006,21.0
9007,26.86
9008,12.02
9009,26.18
9020,66.0
9021,47.39
9022,76.36
9023,20.39
9024,78.43
9031,55.57
9041,45.14
9042,80.14
9044,55.21
9045,41.57
9048,20.54
9064,36.14
9065,136.43
9069,40.0
9072,132.36
9076,46.57
9101,220.86
9104,229.86
9107,114.57
9142,56.07
9143,28.25
9147,141.64
9201,48.96
9202,41.86
9301,22.5
9302,50.79
9364,53.0
9401,106.57
9404,58.5
9432,3.22
9433,49.54
9434,3.61
9435,681.43
9449,109.64
9468,83.93
9501,24.32
9502,83.39
9503,98.04
9504,28.14
9505,28.29
9506,34.39
9507,64.21
9508,68.93
9509,31.89
9513,89.14
9531,125.64
9532,113.64
9533,26.21
9602,36.65
9616,82.57
9627,107.86
9684,100.39
9697,138.14
9706,121.86
9735,90.5
9744,37.93
9759,55.21
9766,616.43
9831,14.17
9843,105.93
9861,66.49
9934,62.79
9962,114.86
9983,1685.38
9984,319.93
9987,91.5
9989,50.71
