code,atr14
1332,21.51
1333,16.87
1414,18.11
1417,49.64
1605,103.21
1719,32.4
1721,135.75
1801,340.13
1802,70.86
1803,76.71
1808,52.25
1812,132.52
1820,92.43
1860,26.27
1878,50.07
1893,50.48
1911,25.18
1925,34.32
1928,51.21
1942,148.24
1944,162.68
1951,37.57
1959,146.75
1963,68.79
1969,111.67
2002,34.41
2127,11.47
2181,7.24
2201,30.26
2206,68.79
2212,86.36
2222,68.72
2229,41.04
2264,28.18
2267,46.96
2269,79.65
2282,43.15
2327,103.13
2331,25.04
2371,45.21
2413,47.21
2432,52.32
2433,32.43
2501,40.5
2502,24.61
2503,49.25
2531,84.04
2579,77.21
2587,67.0
2593,69.43
2607,104.53
2670,46.64
2768,128.7
2784,37.97
2801,35.79
2802,120.24
2809,80.79
2810,64.6
2811,40.07
285A,1020.83
2871,41.6
2875,182.81
2897,59.2
2914,119.86
3003,26.07
3038,94.79
3048,31.57
3064,52.5
3086,54.04
3088,55.86
3092,24.26
3099,35.03
3105,91.36
3107,74.4
3116,36.16
3132,145.26
3197,63.36
3231,12.12
3288,152.68
3289,19.62
3291,37.59
3349,164.64
3360,50.11
3382,33.93
3391,54.57
3397,99.93
3401,33.07
3402,24.44
3405,34.57
3407,31.75
3436,179.32
3549,111.36
3563,193.91
3591,72.68
3626,99.43
3635,34.0
3659,68.84
3697,30.14
3769,209.45
3774,73.84
3861,11.82
3923,33.35
3941,29.07
3994,245.64
4004,858.6
4005,16.58
4021,179.75
4042,41.0
4043,99.96
4045,25.43
4061,85.86
4062,746.67
4063,107.73
4091,122.16
4114,42.74
4118,97.19
4151,49.14
417A,31.76
4182,111.46
4183,57.7
4186,297.57
4188,33.32
4194,279.29
4202,23.15
4203,298.57
4204,38.2
4205,46.52
4206,63.77
4208,60.54
4272,39.06
4307,137.99
4324,73.21
4385,122.36
4401,90.59
4403,45.04
4452,56.79
4502,112.81
4503,47.14
4506,54.71
4507,55.6
4516,50.59
4519,166.21
4523,93.05
4527,62.53
4528,45.04
4536,39.45
4540,55.28
4543,50.55
4544,68.19
4568,71.66
4578,313.93
4587,33.61
4612,24.57
4613,46.36
4626,26.93
4631,112.14
4661,79.35
4665,58.19
4666,46.71
4676,77.06
4680,43.26
4681,29.37
4684,117.91
4689,15.56
4704,194.07
4716,270.14
4732,28.33
4733,172.1
4751,23.03
4755,15.74
4768,66.36
4887,30.16
4901,62.63
4902,23.08
4911,108.14
4912,28.43
4922,115.93
4927,20.04
4967,184.36
4980,103.72
5016,138.4
5019,60.22
5020,38.8
5021,121.1
5076,61.86
5101,183.14
5105,99.29
5108,66.86
5110,37.75
5201,109.36
5214,114.86
5232,50.52
5233,92.22
5301,104.93
5332,126.62
5333,148.29
5334,97.71
5344,2186.51
5393,76.85
5401,13.0
5406,33.37
5411,33.53
5444,225.97
5463,25.07
5471,66.67
5631,280.02
5706,130.42
5711,147.57
5713,363.28
5714,246.43
5801,224.4
5802,91.7
5803,232.93
5830,126.6
5831,98.93
5832,104.51
5838,219.57
5844,132.96
5901,86.5
5929,60.0
5938,18.98
5947,58.27
5991,73.62
6005,71.76
6098,572.82
6113,67.85
6134,253.49
6136,81.21
6141,60.39
6146,2104.97
6178,60.24
6268,138.21
6269,281.86
6273,2014.08
6301,206.64
6302,166.29
6305,121.57
6323,170.79
6326,71.71
6361,157.71
6367,336.83
6368,76.79
6370,147.19
6383,130.21
6417,45.43
6436,48.7
6448,107.94
6457,96.33
6460,92.52
6465,91.71
6471,21.35
6472,7.71
6473,51.94
6479,107.03
6481,199.0
6501,127.75
6503,119.86
6504,416.3
6506,133.86
6525,525.38
6526,104.16
6532,219.57
6544,39.5
6586,88.64
6592,32.29
6632,22.09
6645,160.86
6674,160.51
6701,140.63
6702,108.83
6707,213.79
6723,130.93
6724,75.32
6728,246.43
6752,159.03
6753,23.66
6754,102.51
6758,83.73
6762,104.14
6770,53.15
6806,499.3
6841,99.61
6845,26.03
6849,35.29
6856,687.14
6857,1651.07
6861,1817.48
6869,41.43
6902,27.22
6920,2156.43
6923,63.48
6925,128.14
6951,266.3
6952,62.46
6954,143.36
6963,196.29
6965,65.2
6971,100.6
6976,591.36
6981,405.49
6988,80.18
7003,154.27
7011,115.87
7012,71.85
7013,108.41
7164,35.64
7167,46.9
7180,54.08
7181,41.11
7182,99.5
7186,53.15
7189,141.77
7201,6.46
7202,38.6
7203,47.29
7211,8.92
7240,59.43
7259,40.27
7261,22.53
7267,34.38
7269,41.72
7270,48.18
7272,40.96
7276,47.55
7282,22.88
7309,324.64
7313,20.02
7337,56.93
7453,107.86
7458,32.76
7459,75.71
7476,43.56
7532,19.01
7550,342.55
7616,40.75
7649,31.25
7701,75.6
7729,684.64
7731,61.25
7733,41.61
7735,651.78
7741,533.57
7747,91.21
7751,67.21
7752,34.09
7832,166.11
7846,40.79
7867,116.37
7911,78.12
7912,65.56
7936,112.79
7951,26.29
7956,40.68
7974,249.14
7984,15.8
7988,49.6
8001,55.45
8002,121.38
8012,20.81
8015,197.41
8020,47.81
8031,112.23
8035,445.37
8053,43.83
8056,100.19
8058,108.58
8060,68.71
8086,27.73
8088,45.9
8111,36.53
8113,16.09
8129,69.55
8136,39.41
8174,19.92
8227,65.79
8233,41.18
8242,51.0
8252,35.51
8253,90.43
8267,32.89
8282,39.9
8304,96.21
8306,88.78
8308,78.17
8309,38.59
8316,90.74
8331,78.52
8334,102.53
8341,132.43
8354,198.33
8359,90.79
8377,679.89
8410,5.92
8411,261.83
8418,102.65
8424,71.04
8439,54.83
8473,82.12
8570,36.39
8572,7.54
8591,116.34
8593,20.12
8595,21.93
8601,41.5
8604,42.36
8630,151.49
8697,53.84
8725,121.63
8729,3.37
8750,45.69
8766,19.97
8795,122.8
8801,28.84
8802,79.0
8804,65.0
8830,69.69
8876,49.89
9001,47.86
9003,46.22
9005,24.1
9006,22.73
9007,29.19
9008,16.11
9009,26.93
9020,61.1
9021,47.56
9022,68.78
9023,23.99
9024,82.96
9031,67.66
9041,52.95
9042,80.42
9044,70.92
9045,52.29
9048,27.61
9064,39.64
9065,36.3
9069,41.08
9072,111.01
9076,41.93
9101,172.86
9104,194.59
9107,94.06
9142,57.19
9143,21.96
9147,113.71
9201,50.78
9202,45.09
9301,30.16
9302,61.77
9364,64.1
9401,107.65
9404,67.57
9432,2.84
9433,53.51
9434,4.43
9435,860.51
9449,86.43
9468,73.93
9501,21.58
9502,90.93
9503,87.26
9504,30.81
9505,35.57
9506,40.3
9507,79.68
9508,56.24
9509,30.55
9513,93.14
9531,151.9
9532,152.45
9533,33.72
9602,37.86
9616,67.28
9627,159.36
9684,63.63
9697,130.59
9706,104.26
9735,104.43
9744,56.53
9759,60.64
9766,651.93
9831,13.6
9843,106.18
9861,75.86
9934,55.8
9962,118.4
9983,1570.71
9984,410.93
9987,49.28
9989,50.83
