code,atr14
1332,19.89
1333,16.1
1414,17.68
1417,44.62
1605,84.43
1719,28.79
1721,133.32
1801,305.96
1802,61.33
1803,63.52
1808,45.21
1812,110.27
1820,85.67
1860,25.56
1878,46.14
1893,40.85
1911,20.96
1925,31.33
1928,43.07
1942,126.91
1944,135.04
1951,34.65
1959,126.04
1963,54.29
1969,102.47
2002,34.1
2127,9.25
2181,5.5
2201,28.97
2206,64.5
2212,81.86
2222,72.32
2229,39.18
2264,22.79
2267,39.71
2269,78.55
2282,41.27
2327,99.44
2331,23.67
2371,36.93
2413,47.18
2432,45.46
2433,27.47
2501,48.89
2502,27.0
2503,52.68
2531,94.86
2579,83.36
2587,66.79
2593,67.64
2607,94.97
2670,47.39
2768,112.69
2784,36.68
2801,38.9
2802,123.64
2809,85.0
2810,69.67
2811,39.25
285A,885.83
2871,39.81
2875,193.0
2897,51.54
2914,112.29
3003,25.07
3038,67.64
3048,27.43
3064,51.5
3086,55.75
3088,46.32
3092,21.97
3099,41.93
3105,84.46
3107,70.66
3116,30.12
3132,130.24
3197,61.5
3231,12.11
3288,135.41
3289,19.34
3291,36.13
3349,152.71
3360,42.54
3382,29.36
3391,54.04
3397,93.07
3401,31.16
3402,23.59
3405,33.89
3407,30.31
3436,167.25
3549,165.64
3563,189.02
3591,74.61
3626,96.06
3635,32.75
3659,75.48
3697,30.48
3769,201.04
3774,67.28
3861,11.12
3923,29.89
3941,25.32
3994,223.79
4004,853.96
4005,15.27
4021,192.0
4042,41.16
4043,93.74
4045,21.96
4061,79.96
4062,672.89
4063,119.4
4091,121.48
4114,42.93
4118,95.05
4151,38.89
417A,27.95
4182,101.94
4183,55.63
4186,270.07
4188,30.71
4194,217.07
4202,25.08
4203,252.15
4204,35.82
4205,44.44
4206,67.83
4208,56.86
4272,38.81
4307,122.46
4324,67.86
4385,108.21
4401,82.25
4403,41.3
4452,51.07
4502,104.61
4503,44.45
4506,48.5
4507,71.59
4516,55.01
4519,170.57
4523,93.92
4527,62.48
4528,40.1
4536,39.54
4540,48.15
4543,52.3
4544,69.21
4568,63.19
4578,296.07
4587,33.86
4612,26.82
4613,44.61
4626,39.07
4631,108.36
4661,68.71
4665,59.12
4666,54.89
4676,88.18
4680,40.88
4681,27.43
4684,107.22
4689,13.88
4704,194.5
4716,262.79
4732,26.22
4733,167.36
4751,20.44
4755,16.5
4768,66.29
4887,28.53
4901,68.87
4902,22.83
4911,109.71
4912,25.82
4922,107.71
4927,19.89
4967,203.21
4980,122.61
5016,128.63
5019,50.71
5020,33.03
5021,107.49
5076,87.72
5101,180.86
5105,80.21
5108,65.0
5110,34.32
5201,101.07
5214,115.0
5232,49.4
5233,92.17
5301,93.57
5332,141.23
5333,152.62
5334,97.65
5344,2241.55
5393,81.17
5401,12.72
5406,31.09
5411,31.87
5444,221.9
5463,26.22
5471,69.25
5631,231.22
5706,130.95
5711,120.36
5713,310.85
5714,185.21
5801,222.1
5802,89.95
5803,214.97
5830,113.5
5831,87.49
5832,96.39
5838,192.71
5844,119.91
5901,84.18
5929,55.34
5938,18.54
5947,52.91
5991,103.0
6005,58.2
6098,504.75
6113,64.06
6134,261.68
6136,79.57
6141,63.14
6146,2392.17
6178,54.59
6268,120.79
6269,216.64
6273,1943.39
6301,225.19
6302,159.64
6305,120.84
6323,169.57
6326,74.39
6361,151.36
6367,353.13
6368,80.29
6370,128.76
6383,116.71
6417,39.6
6436,44.21
6448,98.24
6457,81.57
6460,84.45
6465,79.5
6471,21.84
6472,7.82
6473,49.3
6479,113.9
6481,197.07
6501,127.09
6503,109.32
6504,387.14
6506,125.36
6525,469.21
6526,105.72
6532,219.5
6544,34.04
6586,87.24
6592,32.54
6632,21.64
6645,156.29
6674,148.29
6701,127.26
6702,97.36
6707,202.86
6723,150.86
6724,70.8
6728,239.79
6752,160.08
6753,19.7
6754,101.98
6758,77.2
6762,136.58
6770,54.94
6806,534.78
6841,94.96
6845,26.24
6849,31.76
6856,707.5
6857,1689.64
6861,1643.97
6869,43.14
6902,24.21
6920,2185.0
6923,60.7
6925,145.57
6951,250.42
6952,61.11
6954,145.5
6963,171.5
6965,73.62
6971,107.96
6976,644.96
6981,375.55
6988,77.39
7003,132.9
7011,110.01
7012,63.7
7013,87.34
7164,34.97
7167,45.33
7180,52.73
7181,37.49
7182,92.5
7186,49.06
7189,132.95
7201,6.51
7202,34.91
7203,45.78
7211,8.35
7240,59.43
7259,38.53
7261,19.71
7267,32.77
7269,40.5
7270,41.42
7272,41.57
7276,47.7
7282,24.41
7309,286.07
7313,18.62
7337,54.07
7453,102.79
7458,30.81
7459,73.75
7476,39.65
7532,15.78
7550,340.41
7616,46.39
7649,28.5
7701,84.33
7729,707.3
7731,60.91
7733,41.32
7735,637.58
7741,586.07
7747,85.0
7751,70.07
7752,32.77
7832,137.04
7846,38.39
7867,99.45
7911,75.78
7912,63.2
7936,117.29
7951,24.3
7956,36.57
7974,200.86
7984,14.43
7988,45.86
8001,48.47
8002,104.08
8012,21.78
8015,168.15
8020,42.86
8031,99.97
8035,491.26
8053,40.26
8056,81.15
8058,93.84
8060,54.43
8086,28.15
8088,36.8
8111,32.22
8113,15.47
8129,84.58
8136,35.94
8174,18.33
8227,63.36
8233,42.61
8242,50.76
8252,32.81
8253,88.86
8267,27.0
8282,41.12
8304,85.71
8306,81.56
8308,76.46
8309,36.5
8316,85.03
8331,75.58
8334,99.15
8341,119.14
8354,199.04
8359,80.96
8377,37.05
8410,5.73
8411,249.1
8418,102.24
8424,67.68
8439,50.9
8473,72.04
8570,33.0
8572,7.43
8591,121.09
8593,18.79
8595,22.41
8601,40.29
8604,38.25
8630,143.5
8697,52.12
8725,111.22
8729,3.01
8750,43.07
8766,21.08
8795,111.86
8801,26.77
8802,74.71
8804,61.93
8830,63.66
8876,48.39
9001,42.12
9003,43.24
9005,21.14
9006,22.99
9007,27.46
9008,14.82
9009,27.32
9020,53.45
9021,42.97
9022,61.87
9023,23.83
9024,85.47
9031,64.28
9041,50.33
9042,92.29
9044,70.42
9045,49.07
9048,25.89
9064,36.21
9065,32.7
9069,42.08
9072,177.44
9076,41.96
9101,151.76
9104,180.0
9107,81.69
9142,53.6
9143,22.12
9147,104.57
9201,50.02
9202,44.16
9301,28.86
9302,51.42
9364,58.47
9401,123.34
9404,66.28
9432,2.45
9433,47.93
9434,3.92
9435,791.64
9449,78.21
9468,87.79
9501,18.05
9502,71.72
9503,74.97
9504,27.04
9505,35.25
9506,35.44
9507,67.45
9508,61.21
9509,27.73
9513,84.36
9531,138.3
9532,127.45
9533,29.71
9602,35.04
9616,66.35
9627,131.79
9684,55.1
9697,119.11
9706,103.66
9735,101.16
9744,52.97
9759,56.54
9766,653.25
9831,12.06
9843,108.03
9861,75.43
9934,51.04
9962,124.09
9983,1698.57
9984,347.69
9987,53.37
9989,47.88
